id,ppgG,ppgIR,ppgR,statusG,statusIR,statusR,timestamp
1,199826,476803,490660,0,0,0,1748698241166
2,199678,476979,490863,0,0,0,1748698241206
3,199680,477021,490889,0,0,0,1748698241246
4,199556,477131,491003,0,0,0,1748698241286
5,199449,477493,491292,0,0,0,1748698241326
6,199546,478122,491892,0,0,0,1748698241366
7,199726,478847,492498,0,0,0,1748698241406
8,199982,479359,492887,0,0,0,1748698241446
9,200218,479699,536772,0,0,0,1748698241486
10,20077,748828,565021,0,0,0,1748698241526
11,20195,749214,565117,0,0,0,1748698241566
12,20292,749604,565344,0,0,0,1748698241606
13,20522,750007,565504,0,0,0,1748698241646
14,20696,1545300,993703,0,0,0,1748698241686
15,7802,1508015,1109936,0,0,0,1748698241726
16,8156,1508405,1110304,0,0,0,1748698241766
17,8471,1508562,1110380,0,0,0,1748698241806
18,8494,1508331,1110174,0,0,0,1748698241846
19,8499,7528582,5531344,0,0,0,1748698241886
20,45019,7532750,5539771,0,0,0,1748698241926
21,46227,7532017,5539379,0,0,0,1748698241966
22,47059,7531863,5539801,0,0,0,1748698242006
23,48036,7532008,5540583,0,0,0,1748698242046
24,48770,7531692,5541133,0,0,0,1748698242086
25,49222,7532465,5542351,0,0,0,1748698242126
26,50690,7537452,5546134,0,0,0,1748698242166
27,52306,7537143,5545453,0,0,0,1748698242206
28,54171,7535623,5543949,0,0,0,1748698242246
29,57048,7536484,5544798,0,0,0,1748698242286
30,60872,7533971,5543986,0,0,0,1748698242326
31,64829,7535197,5547945,0,0,0,1748698242366
32,67823,7525022,5545321,0,0,0,1748698242406
33,67273,7515255,5538947,0,0,0,1748698242446
34,65708,7508091,5535307,0,0,0,1748698242486
35,63985,7501643,5530901,0,0,0,1748698242526
36,63098,7499559,5530244,0,0,0,1748698242566
37,63066,7497092,5529137,0,0,0,1748698242606
38,62797,7494912,5528070,0,0,0,1748698242646
39,62398,7491845,5525996,0,0,0,1748698242686
40,61937,7488600,5523913,0,0,0,1748698242726
41,61662,7486470,5522908,0,0,0,1748698242766
42,61472,7486155,5523243,0,0,0,1748698242806
43,61591,7485353,5522855,0,0,0,1748698242846
44,61509,7483029,5520654,0,0,0,1748698242886
45,61433,7478869,5516739,0,0,0,1748698242926
46,61013,7474473,5510081,0,0,0,1748698242966
47,59699,7470780,5506217,0,0,0,1748698243006
48,59525,7479449,5517542,0,0,0,1748698243046
49,58559,7476340,5518327,0,0,0,1748698243086
50,58474,7476104,5519276,0,0,0,1748698243126
51,59196,7492008,5530097,0,0,0,1748698243166
52,60798,7503250,5538869,0,0,0,1748698243206
53,63143,7516640,5550034,0,0,0,1748698243246
54,66457,7543822,5573969,0,0,0,1748698243286
55,69063,7562489,5588839,0,0,0,1748698243326
56,71435,7580670,5603373,0,0,0,1748698243366
57,73485,7589945,5609957,0,0,0,1748698243406
58,74790,7597208,5614019,0,0,0,1748698243446
59,76419,7596431,5615351,0,0,0,1748698243486
60,77856,7590407,5606559,0,0,0,1748698243526
61,77295,7583029,5603314,0,0,0,1748698243566
62,77412,7594822,5616347,0,0,0,1748698243606
63,76295,7589344,5604914,0,0,0,1748698243646
64,72731,7555075,5576849,0,0,0,1748698243686
65,69232,7529601,5558519,0,0,0,1748698243726
66,68781,7516533,5550828,0,0,0,1748698243766
67,68736,7512611,5548851,0,0,0,1748698243806
68,67423,7486711,5521539,0,0,0,1748698243846
69,66110,7464177,5502492,0,0,0,1748698243886
70,65520,7448060,5490608,0,0,0,1748698243926
71,65482,7433794,5476252,0,0,0,1748698243966
72,64369,7416830,5453590,0,0,0,1748698244006
73,63694,7434565,5465893,0,0,0,1748698244046
74,63894,7445149,5472567,0,0,0,1748698244086
75,63826,7457376,5481303,0,0,0,1748698244126
76,63679,7466888,5489999,0,0,0,1748698244166
77,61474,7457523,5480161,0,0,0,1748698244206
78,57549,7457999,5482678,0,0,0,1748698244246
79,54531,7453904,5477320,0,0,0,1748698244286
80,51775,7445332,5471398,0,0,0,1748698244326
81,50813,7439706,5466389,0,0,0,1748698244366
82,50469,7435079,5463323,0,0,0,1748698244406
83,51071,7435341,5463131,0,0,0,1748698244446
84,51446,7435658,5462510,0,0,0,1748698244486
85,51976,7438898,5464685,0,0,0,1748698244526
86,52487,7440303,5465503,0,0,0,1748698244566
87,53380,7438071,5463148,0,0,0,1748698244606
88,54586,7441233,5466776,0,0,0,1748698244646
89,56488,7451620,5475994,0,0,0,1748698244686
90,58499,7457408,5480714,0,0,0,1748698244726
91,59915,7456442,5480143,0,0,0,1748698244766
92,60593,7455305,5479329,0,0,0,1748698244806
93,59911,7453611,5478584,0,0,0,1748698244846
94,58385,7448238,5474554,0,0,0,1748698244886
95,57112,7438603,5468205,0,0,0,1748698244926
96,56817,7438957,5467787,0,0,0,1748698244966
97,56243,7434899,5465604,0,0,0,1748698245006
98,56301,7423872,5457547,0,0,0,1748698245046
99,56987,7418036,5454163,0,0,0,1748698245086
100,58278,7421468,5458678,0,0,0,1748698245126
101,59644,7431662,5468070,0,0,0,1748698245166
102,60615,7429020,5467559,0,0,0,1748698245206
103,61828,7426137,5466432,0,0,0,1748698245246
104,63092,7429399,5471065,0,0,0,1748698245286
105,64229,7434606,5476306,0,0,0,1748698245326
106,65459,7437276,5479958,0,0,0,1748698245366
107,66875,7444196,5487235,0,0,0,1748698245406
108,67077,7449785,5493265,0,0,0,1748698245446
109,67015,7453340,5496679,0,0,0,1748698245486
110,67150,7454129,5498874,0,0,0,1748698245526
111,67738,7454917,5500111,0,0,0,1748698245566
112,68588,7454135,5499599,0,0,0,1748698245606
113,69271,7450691,5497241,0,0,0,1748698245646
114,69355,7441352,5488768,0,0,0,1748698245686
115,68572,7424192,5475556,0,0,0,1748698245726
116,67959,7408369,5465462,0,0,0,1748698245766
117,67490,7393140,5454223,0,0,0,1748698245806
118,67240,7379375,5443347,0,0,0,1748698245846
119,66513,7369841,5435359,0,0,0,1748698245886
120,66211,7364891,5432275,0,0,0,1748698245926
121,66302,7366077,5433864,0,0,0,1748698245966
122,66057,7365578,5433306,0,0,0,1748698246006
123,65002,7367759,5437468,0,0,0,1748698246046
124,64171,7370644,5442026,0,0,0,1748698246086
125,63947,7380751,5451237,0,0,0,1748698246126
126,64470,7392232,5462605,0,0,0,1748698246166
127,65336,7403249,5471453,0,0,0,1748698246206
128,66705,7420061,5486163,0,0,0,1748698246246
129,67646,7432587,5496620,0,0,0,1748698246286
130,67763,7428397,5494756,0,0,0,1748698246326
131,67599,7427158,5495276,0,0,0,1748698246366
132,67241,7415179,5487435,0,0,0,1748698246406
133,66689,7397114,5474690,0,0,0,1748698246446
134,66461,7389310,5470279,0,0,0,1748698246486
135,66503,7379946,5464263,0,0,0,1748698246526
136,66534,7379633,5464026,0,0,0,1748698246566
137,66425,7389762,5473051,0,0,0,1748698246606
138,65646,7397753,5478368,0,0,0,1748698246646
139,64716,7404830,5483874,0,0,0,1748698246686
140,64592,7407584,5485818,0,0,0,1748698246726
141,64535,7405306,5483579,0,0,0,1748698246766
142,64938,7398954,5479177,0,0,0,1748698246806
143,65458,7395711,5478811,0,0,0,1748698246846
144,66561,7406541,5488166,0,0,0,1748698246886
145,65668,7397494,5479262,0,0,0,1748698246926
146,63940,7385628,5470473,0,0,0,1748698246966
147,63499,7384237,5471398,0,0,0,1748698247006
148,62569,7379840,5467436,0,0,0,1748698247046
149,61652,7370016,5459208,0,0,0,1748698247086
150,59909,7341392,5433971,0,0,0,1748698247126
151,58674,7331618,5428193,0,0,0,1748698247166
152,56849,7320625,5420613,0,0,0,1748698247206
153,55107,7318470,5418835,0,0,0,1748698247246
154,52535,7314342,5416553,0,0,0,1748698247286
155,51018,7310987,5414482,0,0,0,1748698247326
156,50067,7316705,5419161,0,0,0,1748698247366
157,50222,7328253,5429196,0,0,0,1748698247406
158,51104,7336785,5436707,0,0,0,1748698247446
159,51990,7348788,5446007,0,0,0,1748698247486
160,53568,7365371,5458729,0,0,0,1748698247526
161,56050,7389581,5476446,0,0,0,1748698247566
162,58825,7413613,5494525,0,0,0,1748698247606
163,63989,7458919,5528497,0,0,0,1748698247646
164,70362,7500242,5560706,0,0,0,1748698247686
165,76112,7536385,5589330,0,0,0,1748698247726
166,79765,7572796,5617090,0,0,0,1748698247766
167,81143,7579063,5619205,0,0,0,1748698247806
168,86112,7580124,5621709,0,0,0,1748698247846
169,90244,7579118,5619926,0,0,0,1748698247886
170,92213,7573575,5614925,0,0,0,1748698247926
171,96564,7574633,5621487,0,0,0,1748698247966
172,100544,7566585,5618811,0,0,0,1748698248006
173,104103,7560193,5616893,0,0,0,1748698248046
174,107256,7559630,5621280,0,0,0,1748698248086
175,109421,7576757,5634601,0,0,0,1748698248126
176,109822,7569916,5631013,0,0,0,1748698248166
177,109745,7562786,5620956,0,0,0,1748698248206
178,110426,7574477,5627503,0,0,0,1748698248246
179,111295,7587701,5636898,0,0,0,1748698248286
180,113298,7596986,5640946,0,0,0,1748698248326
181,114008,7607847,5649983,0,0,0,1748698248366
182,115512,7613463,5652986,0,0,0,1748698248406
183,116343,7620455,5658853,0,0,0,1748698248446
184,116449,7625108,5662298,0,0,0,1748698248486
185,116880,7628555,5664179,0,0,0,1748698248526
186,117867,7631845,5666366,0,0,0,1748698248566
187,119067,7636325,5670527,0,0,0,1748698248606
188,120134,7638773,5672423,0,0,0,1748698248646
189,121406,7641456,5675004,0,0,0,1748698248686
190,122104,7643271,5676491,0,0,0,1748698248726
191,122998,7643849,5676581,0,0,0,1748698248766
192,124083,7643646,5674868,0,0,0,1748698248806
193,125242,7645369,5677532,0,0,0,1748698248846
194,126245,7645281,5677559,0,0,0,1748698248886
195,127091,7644917,5676011,0,0,0,1748698248926
196,128514,7644888,5674778,0,0,0,1748698248966
197,129601,7645024,5674729,0,0,0,1748698249006
198,130796,7645775,5674974,0,0,0,1748698249046
199,131588,7646506,5675342,0,0,0,1748698249086
200,131640,7644551,5673200,0,0,0,1748698249126
201,165235,7485215,5559199,0,0,0,1748698253189
202,165557,7484773,5559194,0,0,0,1748698253229
203,166011,7482902,5557621,0,0,0,1748698253269
204,166279,7482627,5557182,0,0,0,1748698253309
205,166665,7481928,5556568,0,0,0,1748698253349
206,167294,7482151,5556916,0,0,0,1748698253389
207,167203,7481141,5556265,0,0,0,1748698253429
208,166900,7480667,5555728,0,0,0,1748698253469
209,166293,7480786,5555883,0,0,0,1748698253509
210,166227,7479866,5555032,0,0,0,1748698253549
211,166091,7479050,5554487,0,0,0,1748698253589
212,166517,7478549,5553912,0,0,0,1748698253629
213,166678,7477311,5552947,0,0,0,1748698253669
214,166954,7476881,5552391,0,0,0,1748698253709
215,167006,7477094,5552770,0,0,0,1748698253749
216,167045,7476663,5552469,0,0,0,1748698253789
217,167385,7476147,5551933,0,0,0,1748698253829
218,167699,7475837,5551653,0,0,0,1748698253869
219,168161,7475750,5551524,0,0,0,1748698253909
220,168444,7474834,5550688,0,0,0,1748698253949
221,169082,7474791,5550668,0,0,0,1748698253989
222,169178,7475247,5551177,0,0,0,1748698254029
223,168572,7474982,5550860,0,0,0,1748698254069
224,167872,7474991,5551065,0,0,0,1748698254109
225,167771,7474127,5550355,0,0,0,1748698254149
226,167805,7474011,5549970,0,0,0,1748698254189
227,167987,7474281,5550302,0,0,0,1748698254229
228,168332,7475450,5551125,0,0,0,1748698254269
229,168406,7476495,5551665,0,0,0,1748698254309
230,168320,7477904,5552590,0,0,0,1748698254349
231,168454,7478705,5553361,0,0,0,1748698254389
232,168778,7479810,5553828,0,0,0,1748698254429
233,168962,7480468,5554249,0,0,0,1748698254469
234,169423,7479482,5553341,0,0,0,1748698254509
235,169779,7478960,5552967,0,0,0,1748698254549
236,170260,7479829,5553656,0,0,0,1748698254589
237,170200,7481624,5555164,0,0,0,1748698254629
238,169747,7482382,5555603,0,0,0,1748698254669
239,169111,7482377,5555557,0,0,0,1748698254709
240,168604,7481835,5555441,0,0,0,1748698254749
241,168549,7481545,5554883,0,0,0,1748698254789
242,168836,7481511,5555009,0,0,0,1748698254829
243,169136,7482746,5555785,0,0,0,1748698254869
244,169189,7483756,5556588,0,0,0,1748698254909
245,169334,7484681,5557128,0,0,0,1748698254949
246,169541,7485267,5557686,0,0,0,1748698254989
247,169793,7486004,5558179,0,0,0,1748698255029
248,170077,7486388,5558241,0,0,0,1748698255069
249,170512,7487054,5558647,0,0,0,1748698255109
250,170962,7485806,5557720,0,0,0,1748698255149
251,171286,7483123,5555364,0,0,0,1748698255189
252,170661,7478138,5551297,0,0,0,1748698255229
253,169572,7476184,5549907,0,0,0,1748698255269
254,168455,7475545,5549524,0,0,0,1748698255309
255,167673,7475581,5549573,0,0,0,1748698255349
256,167135,7475861,5549658,0,0,0,1748698255389
257,167266,7476340,5549959,0,0,0,1748698255429
258,167119,7476207,5549739,0,0,0,1748698255469
259,166941,7475391,5549159,0,0,0,1748698255509
260,166608,7474776,5548540,0,0,0,1748698255549
261,166304,7474635,5548249,0,0,0,1748698255589
262,166141,7473264,5547274,0,0,0,1748698255629
263,166126,7473287,5547380,0,0,0,1748698255669
264,166127,7472974,5546838,0,0,0,1748698255709
265,166332,7472693,5546647,0,0,0,1748698255749
266,166490,7471882,5546060,0,0,0,1748698255789
267,166500,7471977,5546049,0,0,0,1748698255829
268,165624,7470743,5544885,0,0,0,1748698255869
269,164336,7469898,5544466,0,0,0,1748698255909
270,163539,7468896,5543746,0,0,0,1748698255949
271,162847,7467899,5542849,0,0,0,1748698255989
272,162516,7467056,5542001,0,0,0,1748698256029
273,162454,7466666,5541871,0,0,0,1748698256069
274,162048,7466372,5541629,0,0,0,1748698256109
275,161712,7465761,5540970,0,0,0,1748698256149
276,161457,7465096,5540434,0,0,0,1748698256189
277,161116,7464681,5540251,0,0,0,1748698256229
278,160968,7464273,5539777,0,0,0,1748698256269
279,160991,7463735,5539179,0,0,0,1748698256309
280,160934,7462900,5538262,0,0,0,1748698256349
281,161076,7462840,5538225,0,0,0,1748698256389
282,161120,7463161,5538393,0,0,0,1748698256429
283,160456,7463113,5538297,0,0,0,1748698256469
284,159422,7462721,5538406,0,0,0,1748698256509
285,158306,7461649,5537449,0,0,0,1748698256549
286,157494,7460474,5536427,0,0,0,1748698256589
287,157112,7459822,5535912,0,0,0,1748698256629
288,156860,7459757,5535895,0,0,0,1748698256669
289,156581,7459871,5535739,0,0,0,1748698256709
290,156095,7459683,5535456,0,0,0,1748698256749
291,155758,7459988,5535810,0,0,0,1748698256789
292,155547,7459943,5535788,0,0,0,1748698256829
293,155250,7460121,5535578,0,0,0,1748698256869
294,155209,7460551,5536101,0,0,0,1748698256909
295,155401,7460363,5535468,0,0,0,1748698256949
296,155407,7460433,5535505,0,0,0,1748698256989
297,155585,7461472,5536238,0,0,0,1748698257029
298,155011,7463248,5537574,0,0,0,1748698257069
299,153976,7463226,5537728,0,0,0,1748698257109
300,153032,7462890,5537320,0,0,0,1748698257149
301,152166,7462444,5537103,0,0,0,1748698257204
302,151579,7461925,5536681,0,0,0,1748698257244
303,151317,7462080,5536695,0,0,0,1748698257284
304,151212,7463028,5537457,0,0,0,1748698257324
305,150912,7463848,5537847,0,0,0,1748698257364
306,150438,7464084,5538127,0,0,0,1748698257404
307,150124,7463705,5537590,0,0,0,1748698257444
308,149886,7463379,5537502,0,0,0,1748698257484
309,149647,7462765,5536781,0,0,0,1748698257524
310,149695,7463318,5537189,0,0,0,1748698257564
311,149859,7463305,5537198,0,0,0,1748698257604
312,150105,7463270,5536894,0,0,0,1748698257644
313,149751,7464690,5538125,0,0,0,1748698257684
314,149026,7465750,5538973,0,0,0,1748698257724
315,147654,7464750,5538115,0,0,0,1748698257764
316,146451,7461947,5536450,0,0,0,1748698257804
317,145626,7458811,5533407,0,0,0,1748698257844
318,144696,7456180,5530928,0,0,0,1748698257884
319,143694,7451988,5527682,0,0,0,1748698257924
320,142492,7448579,5524521,0,0,0,1748698257964
321,141590,7447965,5523781,0,0,0,1748698258004
322,140849,7448582,5524423,0,0,0,1748698258044
323,140283,7448664,5524239,0,0,0,1748698258084
324,139983,7448813,5524248,0,0,0,1748698258124
325,139655,7449351,5524515,0,0,0,1748698258164
326,139493,7448687,5524011,0,0,0,1748698258204
327,139338,7448374,5523779,0,0,0,1748698258244
328,139339,7449691,5524793,0,0,0,1748698258284
329,138664,7450878,5525845,0,0,0,1748698258324
330,137236,7449475,5524843,0,0,0,1748698258364
331,135685,7448164,5523881,0,0,0,1748698258404
332,134237,7445171,5521339,0,0,0,1748698258444
333,132932,7442244,5518482,0,0,0,1748698258484
334,131582,7438813,5515109,0,0,0,1748698258524
335,130225,7435536,5512114,0,0,0,1748698258564
336,129057,7434903,5511070,0,0,0,1748698258604
337,127553,7432330,5506006,0,0,0,1748698258644
338,125680,7423869,5493899,0,0,0,1748698258684
339,126084,7448140,5514989,0,0,0,1748698258724
340,125632,7437219,5502469,0,0,0,1748698258764
341,125455,7432907,5503871,0,0,0,1748698258804
342,125663,7431102,5504714,0,0,0,1748698258844
343,126042,7421008,5496680,0,0,0,1748698258884
344,125463,7415037,5494950,0,0,0,1748698258924
345,124750,7406597,5488193,0,0,0,1748698258964
346,123062,7396618,5479082,0,0,0,1748698259004
347,121822,7393819,5477569,0,0,0,1748698259044
348,121647,7398749,5484133,0,0,0,1748698259084
349,122260,7398201,5485107,0,0,0,1748698259124
350,122462,7393872,5482170,0,0,0,1748698259164
351,121398,7388884,5475133,0,0,0,1748698259204
352,120894,7389033,5474362,0,0,0,1748698259244
353,120738,7397913,5477772,0,0,0,1748698259284
354,119983,7396006,5473956,0,0,0,1748698259324
355,121447,7416844,5490427,0,0,0,1748698259364
356,125002,7452412,5520616,0,0,0,1748698259404
357,129279,7486692,5549820,0,0,0,1748698259444
358,132370,7495413,5557316,0,0,0,1748698259484
359,135461,7521310,5577050,0,0,0,1748698259524
360,138439,7546974,5597577,0,0,0,1748698259564
361,138244,7546204,5594180,0,0,0,1748698259604
362,136831,7542396,5592125,0,0,0,1748698259644
363,136924,7555651,5604523,0,0,0,1748698259684
364,137843,7564230,5611723,0,0,0,1748698259724
365,140334,7580192,5625985,0,0,0,1748698259764
366,143753,7596330,5640168,0,0,0,1748698259804
367,148081,7606015,5652672,0,0,0,1748698259844
368,151584,7609017,5658577,0,0,0,1748698259884
369,159333,7625813,5683046,0,0,0,1748698259924
370,158493,7615677,5658933,0,0,0,1748698259964
371,155689,7605557,5651794,0,0,0,1748698260004
372,158516,7609250,5656305,0,0,0,1748698260044
373,157674,7597432,5642345,0,0,0,1748698260084
374,159320,7591330,5637967,0,0,0,1748698260124
375,156671,7545806,5589443,0,0,0,1748698260164
376,154566,7520891,5565880,0,0,0,1748698260204
377,153754,7526177,5565841,0,0,0,1748698260244
378,152585,7539805,5572992,0,0,0,1748698260284
379,150416,7543876,5573559,0,0,0,1748698260324
380,149184,7559836,5586868,0,0,0,1748698260364
381,148880,7575050,5599043,0,0,0,1748698260404
382,148134,7583363,5605715,0,0,0,1748698260444
383,147217,7578541,5603535,0,0,0,1748698260484
384,146279,7581445,5606170,0,0,0,1748698260524
385,146036,7581093,5606607,0,0,0,1748698260564
386,147026,7593591,5617851,0,0,0,1748698260604
387,148658,7602021,5623346,0,0,0,1748698260644
388,151756,7612187,5632510,0,0,0,1748698260684
389,155217,7624782,5645665,0,0,0,1748698260724
390,160265,7631444,5652532,0,0,0,1748698260764
391,164432,7620229,5642386,0,0,0,1748698260804
392,168717,7604086,5636386,0,0,0,1748698260844
393,172767,7594250,5630257,0,0,0,1748698260884
394,175308,7594850,5636205,0,0,0,1748698260924
395,177658,7594736,5636519,0,0,0,1748698260964
396,179123,7593723,5634528,0,0,0,1748698261004
397,181262,7601962,5650760,0,0,0,1748698261044
398,183901,7607648,5657743,0,0,0,1748698261084
399,184177,7598380,5647634,0,0,0,1748698261124
400,187414,7590899,5644799,0,0,0,1748698261164
401,192880,7591181,5648862,0,0,0,1748698261204
402,197898,7592348,5651247,0,0,0,1748698261244
403,202046,7591916,5651478,0,0,0,1748698261284
404,205651,7593296,5653751,0,0,0,1748698261324
405,209470,7593162,5653046,0,0,0,1748698261364
406,212814,7596972,5655616,0,0,0,1748698261404
407,215216,7602136,5658785,0,0,0,1748698261444
408,216176,7606855,5663012,0,0,0,1748698261484
409,216458,7609811,5664319,0,0,0,1748698261524
410,216065,7625964,5677170,0,0,0,1748698261564
411,215233,7638076,5682217,0,0,0,1748698261604
412,214515,7654905,5692813,0,0,0,1748698261644
413,212531,7671816,5701735,0,0,0,1748698261684
414,210054,7673082,5702209,0,0,0,1748698261724
415,208300,7664889,5699045,0,0,0,1748698261764
416,208253,7659208,5710293,0,0,0,1748698261804
417,210164,7668917,5729284,0,0,0,1748698261844
418,210725,7679775,5733205,0,0,0,1748698261884
419,212745,7676371,5743605,0,0,0,1748698261924
420,213354,7687355,5745516,0,0,0,1748698261964
421,211358,7669075,5729564,0,0,0,1748698262004
422,209724,7641795,5716008,0,0,0,1748698262044
423,207334,7610647,5682069,0,0,0,1748698262084
424,205364,7572137,5663244,0,0,0,1748698262124
425,203389,7523320,5632038,0,0,0,1748698262164
426,201854,7510912,5617928,0,0,0,1748698262204
427,200022,7487876,5595573,0,0,0,1748698262244
428,198893,7482758,5584749,0,0,0,1748698262284
429,198599,7487223,5584848,0,0,0,1748698262324
430,198872,7495816,5594414,0,0,0,1748698262364
431,198609,7501211,5598918,0,0,0,1748698262404
432,198208,7505276,5603371,0,0,0,1748698262444
433,197037,7505246,5600110,0,0,0,1748698262484
434,196278,7511382,5603371,0,0,0,1748698262524
435,195666,7505143,5600704,0,0,0,1748698262564
436,194967,7491452,5590221,0,0,0,1748698262604
437,194961,7493482,5596066,0,0,0,1748698262644
438,195599,7508630,5607514,0,0,0,1748698262684
439,195542,7513220,5612120,0,0,0,1748698262724
440,194371,7510716,5610335,0,0,0,1748698262764
441,192159,7500430,5603632,0,0,0,1748698262804
442,189926,7495411,5601122,0,0,0,1748698262844
443,188705,7501420,5606174,0,0,0,1748698262884
444,188005,7499113,5604128,0,0,0,1748698262924
445,187741,7500811,5606844,0,0,0,1748698262964
446,187311,7495963,5602976,0,0,0,1748698263004
447,186160,7487603,5596408,0,0,0,1748698263044
448,185680,7505770,5608372,0,0,0,1748698263084
449,184953,7503569,5607414,0,0,0,1748698263124
450,184701,7495472,5603871,0,0,0,1748698263164
451,184431,7495545,5604312,0,0,0,1748698263204
452,184689,7504216,5612016,0,0,0,1748698263244
453,184501,7502790,5610005,0,0,0,1748698263284
454,184185,7504632,5611922,0,0,0,1748698263324
455,183553,7507488,5613798,0,0,0,1748698263364
456,181911,7505699,5612770,0,0,0,1748698263404
457,179683,7508397,5615747,0,0,0,1748698263444
458,177585,7504551,5611632,0,0,0,1748698263484
459,175698,7490063,5599946,0,0,0,1748698263524
460,174810,7483510,5594513,0,0,0,1748698263564
461,173996,7480176,5592494,0,0,0,1748698263604
462,171490,7459822,5572519,0,0,0,1748698263644
463,169099,7428618,5545487,0,0,0,1748698263684
464,166991,7402606,5522413,0,0,0,1748698263724
465,165260,7388354,5509860,0,0,0,1748698263764
466,163974,7379971,5502833,0,0,0,1748698263804
467,162895,7375418,5496893,0,0,0,1748698263844
468,162079,7372335,5494542,0,0,0,1748698263884
469,161686,7371076,5495513,0,0,0,1748698263924
470,160481,7369539,5496013,0,0,0,1748698263964
471,157832,7365423,5493329,0,0,0,1748698264004
472,154465,7360292,5488736,0,0,0,1748698264044
473,150655,7352352,5480314,0,0,0,1748698264084
474,147773,7347797,5476767,0,0,0,1748698264124
475,147804,7354245,5488191,0,0,0,1748698264164
476,148849,7381793,5522167,0,0,0,1748698264204
477,153123,7458490,5572799,0,0,0,1748698264244
478,148750,7405450,5527841,0,0,0,1748698264284
479,147948,7457307,5554266,0,0,0,1748698264324
480,148414,7470677,5549630,0,0,0,1748698264364
481,153262,7538944,5596267,0,0,0,1748698264404
482,157207,7557047,5596038,0,0,0,1748698264444
483,159965,7558251,5593015,0,0,0,1748698264484
484,162252,7554183,5586211,0,0,0,1748698264524
485,162771,7545475,5578885,0,0,0,1748698264564
486,163127,7535974,5572344,0,0,0,1748698264604
487,163701,7539241,5574177,0,0,0,1748698264644
488,166878,7553093,5585798,0,0,0,1748698264684
489,170308,7566946,5596773,0,0,0,1748698264724
490,173810,7566187,5595233,0,0,0,1748698264764
491,174464,7568315,5597339,0,0,0,1748698264804
492,175227,7562191,5594315,0,0,0,1748698264844
493,176059,7545620,5586165,0,0,0,1748698264884
494,176848,7540547,5585053,0,0,0,1748698264924
495,179083,7545854,5591079,0,0,0,1748698264964
496,181571,7546270,5592596,0,0,0,1748698265004
497,183621,7547028,5594699,0,0,0,1748698265044
498,186751,7546198,5594679,0,0,0,1748698265084
499,190410,7545590,5594733,0,0,0,1748698265124
500,193694,7550411,5598178,0,0,0,1748698265164
501,196236,7554983,5602668,0,0,0,1748698265223
502,197719,7558221,5606017,0,0,0,1748698265263
503,198106,7562646,5610545,0,0,0,1748698265303
504,198846,7566957,5613716,0,0,0,1748698265343
505,200167,7568954,5614656,0,0,0,1748698265383
506,201736,7576058,5619840,0,0,0,1748698265423
507,202846,7577883,5620442,0,0,0,1748698265463
508,203499,7580048,5623849,0,0,0,1748698265503
509,203926,7581203,5625325,0,0,0,1748698265543
510,204243,7584590,5628039,0,0,0,1748698265583
511,204028,7588259,5631369,0,0,0,1748698265623
512,203974,7598134,5638484,0,0,0,1748698265663
513,203075,7605798,5642935,0,0,0,1748698265703
514,202438,7608873,5645508,0,0,0,1748698265743
515,202278,7607836,5644822,0,0,0,1748698265783
516,202006,7603891,5642417,0,0,0,1748698265823
517,201289,7598863,5638599,0,0,0,1748698265863
518,200412,7596961,5637592,0,0,0,1748698265903
519,199876,7598589,5639659,0,0,0,1748698265943
520,199494,7602605,5643041,0,0,0,1748698265983
521,199372,7604317,5643938,0,0,0,1748698266023
522,199152,7606143,5644876,0,0,0,1748698266063
523,198458,7607594,5646545,0,0,0,1748698266103
524,197627,7610115,5649636,0,0,0,1748698266143
525,196841,7609336,5648715,0,0,0,1748698266183
526,196476,7606378,5644959,0,0,0,1748698266223
527,196115,7609388,5646638,0,0,0,1748698266263
528,195546,7607565,5642992,0,0,0,1748698266303
529,194899,7616774,5648048,0,0,0,1748698266343
530,194194,7622552,5651029,0,0,0,1748698266383
531,192658,7622041,5650464,0,0,0,1748698266423
532,190152,7622852,5651889,0,0,0,1748698266463
533,186979,7615331,5649053,0,0,0,1748698266503
534,185022,7619437,5651215,0,0,0,1748698266543
535,183160,7618731,5650397,0,0,0,1748698266583
536,182469,7614328,5646729,0,0,0,1748698266623
537,183566,7609222,5643416,0,0,0,1748698266663
538,184921,7608525,5641424,0,0,0,1748698266703
539,186474,7607593,5638810,0,0,0,1748698266743
540,186668,7610054,5639031,0,0,0,1748698266783
541,186704,7609952,5634992,0,0,0,1748698266823
542,186992,7614277,5638989,0,0,0,1748698266863
543,186028,7622683,5648125,0,0,0,1748698266903
544,184561,7624559,5649665,0,0,0,1748698266943
545,183971,7627370,5655187,0,0,0,1748698266983
546,183037,7629994,5661328,0,0,0,1748698267023
547,181754,7640585,5674948,0,0,0,1748698267063
548,180105,7642608,5682946,0,0,0,1748698267103
549,178479,7642891,5690543,0,0,0,1748698267143
550,177501,7642657,5690466,0,0,0,1748698267183
551,175495,7641555,5686063,0,0,0,1748698267223
552,173731,7637809,5680521,0,0,0,1748698267263
553,172356,7634742,5675488,0,0,0,1748698267303
554,171420,7631874,5672437,0,0,0,1748698267343
555,170440,7629753,5666884,0,0,0,1748698267383
556,168658,7627253,5660478,0,0,0,1748698267423
557,167041,7624671,5654791,0,0,0,1748698267463
558,165790,7625511,5662181,0,0,0,1748698267503
559,165648,7629528,5664242,0,0,0,1748698267543
560,164818,7625969,5652400,0,0,0,1748698267583
561,163916,7626826,5652374,0,0,0,1748698267623
562,162192,7629190,5651034,0,0,0,1748698267663
563,159471,7624335,5643508,0,0,0,1748698267703
564,157348,7625023,5643798,0,0,0,1748698267743
565,156100,7625935,5643230,0,0,0,1748698267783
566,154992,7626374,5642124,0,0,0,1748698267823
567,154208,7626346,5642020,0,0,0,1748698267863
568,154254,7625949,5641461,0,0,0,1748698267903
569,154981,7620794,5638272,0,0,0,1748698267943
570,157971,7605961,5630025,0,0,0,1748698267983
571,163027,7584161,5619664,0,0,0,1748698268023
572,167793,7566639,5614994,0,0,0,1748698268063
573,170884,7556046,5609361,0,0,0,1748698268103
574,172466,7558037,5614756,0,0,0,1748698268143
575,172859,7570116,5631484,0,0,0,1748698268183
576,175038,7574918,5637546,0,0,0,1748698268223
577,177717,7587749,5650710,0,0,0,1748698268263
578,178573,7588681,5649822,0,0,0,1748698268303
579,181871,7582301,5651578,0,0,0,1748698268343
580,185957,7578060,5656512,0,0,0,1748698268383
581,191750,7592512,5679078,0,0,0,1748698268423
582,198406,7623527,5707353,0,0,0,1748698268463
583,199458,7644395,5726912,0,0,0,1748698268503
584,197049,7649108,5736185,0,0,0,1748698268543
585,197033,7652454,5742992,0,0,0,1748698268583
586,198008,7656527,5749665,0,0,0,1748698268623
587,197759,7651172,5745868,0,0,0,1748698268663
588,198679,7642631,5738106,0,0,0,1748698268703
589,202473,7644135,5745293,0,0,0,1748698268743
590,204178,7646709,5740029,0,0,0,1748698268783
591,205897,7646360,5742774,0,0,0,1748698268823
592,205458,7643784,5737557,0,0,0,1748698268863
593,203247,7641291,5732075,0,0,0,1748698268903
594,202071,7640965,5732421,0,0,0,1748698268943
595,200958,7634539,5727906,0,0,0,1748698268983
596,199811,7630961,5721497,0,0,0,1748698269023
597,198340,7618615,5707789,0,0,0,1748698269063
598,196893,7609885,5697888,0,0,0,1748698269103
599,195205,7608618,5692076,0,0,0,1748698269143
600,193693,7609335,5689446,0,0,0,1748698269183
601,192687,7610705,5689477,0,0,0,1748698269223
602,191279,7595165,5680799,0,0,0,1748698269263
603,188163,7560186,5655942,0,0,0,1748698269303
604,185353,7524119,5630160,0,0,0,1748698269343
605,184012,7517830,5621204,0,0,0,1748698269383
606,182571,7503020,5611222,0,0,0,1748698269423
607,180858,7483261,5593015,0,0,0,1748698269463
608,178033,7464119,5577468,0,0,0,1748698269503
609,174560,7437377,5558074,0,0,0,1748698269543
610,171558,7421196,5544946,0,0,0,1748698269583
611,169387,7419734,5544003,0,0,0,1748698269623
612,168499,7420191,5546774,0,0,0,1748698269663
613,167938,7413731,5547195,0,0,0,1748698269703
614,167413,7410134,5543930,0,0,0,1748698269743
615,166359,7413175,5544541,0,0,0,1748698269783
616,165164,7409305,5542673,0,0,0,1748698269823
617,164225,7404531,5537532,0,0,0,1748698269863
618,162941,7389721,5525947,0,0,0,1748698269903
619,162519,7388178,5524853,0,0,0,1748698269943
620,161995,7384658,5522562,0,0,0,1748698269983
621,161857,7382329,5520742,0,0,0,1748698270023
622,161328,7382897,5521247,0,0,0,1748698270063
623,160803,7382746,5522473,0,0,0,1748698270103
624,159246,7380670,5519126,0,0,0,1748698270143
625,157124,7382242,5521073,0,0,0,1748698270183
626,155624,7386032,5524727,0,0,0,1748698270223
627,154463,7389707,5526410,0,0,0,1748698270263
628,153790,7389691,5525682,0,0,0,1748698270303
629,153410,7393878,5530743,0,0,0,1748698270343
630,153036,7397922,5535696,0,0,0,1748698270383
631,152310,7394848,5531752,0,0,0,1748698270423
632,150946,7389509,5526520,0,0,0,1748698270463
633,149946,7383653,5520042,0,0,0,1748698270503
634,149119,7378065,5515300,0,0,0,1748698270543
635,148404,7370734,5508757,0,0,0,1748698270583
636,147505,7363801,5502694,0,0,0,1748698270623
637,147129,7360955,5501466,0,0,0,1748698270663
638,146908,7358784,5500696,0,0,0,1748698270703
639,145613,7357207,5499563,0,0,0,1748698270743
640,143834,7355103,5498938,0,0,0,1748698270783
641,141436,7350485,5495109,0,0,0,1748698270823
642,139864,7345986,5491886,0,0,0,1748698270863
643,138854,7345259,5492431,0,0,0,1748698270903
644,138877,7345535,5493702,0,0,0,1748698270943
645,138533,7348176,5497139,0,0,0,1748698270983
646,138071,7354026,5502175,0,0,0,1748698271023
647,137075,7363395,5509403,0,0,0,1748698271063
648,138328,7379022,5527849,0,0,0,1748698271103
649,139237,7400220,5541520,0,0,0,1748698271143
650,139245,7385150,5520831,0,0,0,1748698271183
651,140958,7419040,5554227,0,0,0,1748698271223
652,142949,7445272,5566489,0,0,0,1748698271263
653,144844,7476013,5593441,0,0,0,1748698271303
654,146850,7519451,5618469,0,0,0,1748698271343
655,146141,7542797,5631692,0,0,0,1748698271383
656,147637,7566701,5650672,0,0,0,1748698271423
657,148618,7573900,5645373,0,0,0,1748698271463
658,149327,7581416,5652388,0,0,0,1748698271503
659,151011,7576494,5645655,0,0,0,1748698271543
660,152378,7565390,5625117,0,0,0,1748698271583
661,153621,7565077,5620437,0,0,0,1748698271623
662,153902,7571961,5626746,0,0,0,1748698271663
663,153922,7569331,5618785,0,0,0,1748698271703
664,153959,7573204,5625577,0,0,0,1748698271743
665,153756,7563611,5613440,0,0,0,1748698271783
666,154445,7557601,5608343,0,0,0,1748698271823
667,154844,7563328,5613414,0,0,0,1748698271863
668,155402,7557802,5608005,0,0,0,1748698271903
669,156099,7547670,5602534,0,0,0,1748698271943
670,156389,7534507,5595576,0,0,0,1748698271983
671,155216,7516666,5581409,0,0,0,1748698272023
672,154217,7507444,5571682,0,0,0,1748698272063
673,155905,7509236,5570699,0,0,0,1748698272103
674,158872,7516091,5573483,0,0,0,1748698272143
675,164896,7526334,5580848,0,0,0,1748698272183
676,171140,7540700,5592833,0,0,0,1748698272223
677,174823,7550372,5601036,0,0,0,1748698272263
678,181239,7578201,5625016,0,0,0,1748698272303
679,183554,7595419,5641839,0,0,0,1748698272343
680,184615,7609902,5660637,0,0,0,1748698272383
681,185299,7619818,5673568,0,0,0,1748698272423
682,185276,7628363,5684385,0,0,0,1748698272463
683,185718,7634676,5692771,0,0,0,1748698272503
684,185644,7637338,5693084,0,0,0,1748698272543
685,183588,7633521,5683676,0,0,0,1748698272583
686,181025,7611859,5671891,0,0,0,1748698272623
687,179038,7598012,5664820,0,0,0,1748698272663
688,177701,7582572,5653881,0,0,0,1748698272703
689,177259,7571085,5648125,0,0,0,1748698272743
690,177014,7566386,5645030,0,0,0,1748698272783
691,176814,7558834,5638695,0,0,0,1748698272823
692,176487,7556825,5639031,0,0,0,1748698272863
693,176362,7550810,5633416,0,0,0,1748698272903
694,176000,7540281,5626060,0,0,0,1748698272943
695,175623,7529969,5618415,0,0,0,1748698272983
696,175533,7520758,5611497,0,0,0,1748698273023
697,175478,7508388,5601932,0,0,0,1748698273063
698,176020,7506524,5602293,0,0,0,1748698273103
699,176248,7500700,5596371,0,0,0,1748698273143
700,176155,7507336,5600286,0,0,0,1748698273183
701,174954,7507585,5597170,0,0,0,1748698273245
702,174473,7519594,5606306,0,0,0,1748698273285
703,174128,7517612,5600513,0,0,0,1748698273325
704,173533,7507862,5593020,0,0,0,1748698273365
705,173538,7505304,5586188,0,0,0,1748698273405
706,172861,7490313,5571560,0,0,0,1748698273445
707,172495,7487210,5564383,0,0,0,1748698273485
708,171900,7479790,5555348,0,0,0,1748698273525
709,171105,7477683,5552727,0,0,0,1748698273565
710,171466,7496177,5561800,0,0,0,1748698273605
711,170419,7474768,5541997,0,0,0,1748698273645
712,170781,7484464,5549285,0,0,0,1748698273685
713,171457,7486994,5547848,0,0,0,1748698273725
714,171788,7483713,5544429,0,0,0,1748698273765
715,172678,7496331,5553857,0,0,0,1748698273805
716,172506,7492057,5549081,0,0,0,1748698273845
717,170628,7489925,5546373,0,0,0,1748698273885
718,170911,7500025,5553536,0,0,0,1748698273925
719,169453,7485484,5540412,0,0,0,1748698273965
720,170375,7499779,5553932,0,0,0,1748698274005
721,170746,7501882,5554553,0,0,0,1748698274045
722,171614,7504823,5557667,0,0,0,1748698274085
723,171327,7497922,5549972,0,0,0,1748698274125
724,170614,7493812,5549360,0,0,0,1748698274165
725,170406,7495078,5550385,0,0,0,1748698274205
726,170459,7486572,5543708,0,0,0,1748698274245
727,170241,7475179,5535732,0,0,0,1748698274285
728,170681,7476557,5536289,0,0,0,1748698274325
729,171242,7478055,5539232,0,0,0,1748698274365
730,171544,7483348,5543881,0,0,0,1748698274405
731,172145,7491470,5549483,0,0,0,1748698274445
732,172449,7491943,5544765,0,0,0,1748698274485
733,173312,7492595,5543580,0,0,0,1748698274525
734,170313,7463896,5515366,0,0,0,1748698274565
735,167972,7448365,5500075,0,0,0,1748698274605
736,167169,7437504,5491730,0,0,0,1748698274645
737,167068,7433494,5489813,0,0,0,1748698274685
738,166874,7429475,5486444,0,0,0,1748698274725
739,167073,7429843,5489841,0,0,0,1748698274765
740,168739,7448021,5510762,0,0,0,1748698274805
741,172524,7483762,5545581,0,0,0,1748698274845
742,176289,7521907,5579848,0,0,0,1748698274885
743,180448,7556126,5610635,0,0,0,1748698274925
744,183709,7570094,5625001,0,0,0,1748698274965
745,186713,7571187,5627233,0,0,0,1748698275005
746,187161,7568211,5622071,0,0,0,1748698275045
747,188394,7569248,5626944,0,0,0,1748698275085
748,189533,7570647,5632171,0,0,0,1748698275125
749,190256,7566455,5625758,0,0,0,1748698275165
750,189852,7555281,5613999,0,0,0,1748698275205
751,189997,7554623,5614664,0,0,0,1748698275245
752,189425,7554501,5615866,0,0,0,1748698275285
753,189862,7560006,5624853,0,0,0,1748698275325
754,190325,7564127,5629808,0,0,0,1748698275365
755,190362,7564769,5629471,0,0,0,1748698275405
756,190639,7565602,5631408,0,0,0,1748698275445
757,191385,7575245,5637983,0,0,0,1748698275485
758,191561,7583572,5642000,0,0,0,1748698275525
759,191863,7585494,5643309,0,0,0,1748698275565
760,191637,7585671,5644617,0,0,0,1748698275605
761,191399,7588739,5647227,0,0,0,1748698275645
762,190627,7586070,5643639,0,0,0,1748698275685
763,190852,7590249,5647678,0,0,0,1748698275725
764,190667,7594901,5648485,0,0,0,1748698275765
765,191630,7603709,5658152,0,0,0,1748698275805
766,194595,7614796,5671783,0,0,0,1748698275845
767,196548,7622005,5676828,0,0,0,1748698275885
768,198167,7622260,5676147,0,0,0,1748698275925
769,199870,7623981,5678129,0,0,0,1748698275965
770,202090,7623256,5676691,0,0,0,1748698276005
771,204502,7612512,5660593,0,0,0,1748698276045
772,205941,7606755,5651308,0,0,0,1748698276085
773,207893,7605221,5650407,0,0,0,1748698276125
774,208704,7603650,5649674,0,0,0,1748698276165
775,209329,7602940,5651395,0,0,0,1748698276205
776,209590,7601344,5651023,0,0,0,1748698276245
777,209830,7600225,5650816,0,0,0,1748698276285
778,210487,7599947,5649111,0,0,0,1748698276325
779,211477,7599212,5648546,0,0,0,1748698276365
780,212229,7597856,5646576,0,0,0,1748698276405
781,213242,7596715,5644885,0,0,0,1748698276445
782,214336,7597318,5645056,0,0,0,1748698276485
783,214903,7598374,5645332,0,0,0,1748698276525
784,215643,7601408,5646738,0,0,0,1748698276565
785,216139,7604927,5649198,0,0,0,1748698276605
786,216850,7608047,5650200,0,0,0,1748698276645
787,217268,7610126,5649906,0,0,0,1748698276685
788,217214,7609339,5645354,0,0,0,1748698276725
789,216751,7608948,5643365,0,0,0,1748698276765
790,216202,7609887,5643817,0,0,0,1748698276805
791,216315,7610172,5645946,0,0,0,1748698276845
792,217464,7611111,5649707,0,0,0,1748698276885
793,218742,7613031,5653355,0,0,0,1748698276925
794,219939,7614831,5657195,0,0,0,1748698276965
795,220867,7616565,5660561,0,0,0,1748698277005
796,221396,7621254,5664650,0,0,0,1748698277045
797,220724,7635587,5670688,0,0,0,1748698277085
798,219014,7629543,5660460,0,0,0,1748698277125
799,217338,7621572,5656869,0,0,0,1748698277165
800,216909,7621340,5659546,0,0,0,1748698277205
801,217080,7622239,5662599,0,0,0,1748698277245
802,217220,7621922,5663159,0,0,0,1748698277285
803,216693,7619820,5661385,0,0,0,1748698277325
804,216233,7615903,5656763,0,0,0,1748698277365
805,216315,7614033,5657288,0,0,0,1748698277405
806,216989,7612316,5656009,0,0,0,1748698277445
807,217895,7610682,5654644,0,0,0,1748698277485
808,218945,7610940,5654482,0,0,0,1748698277525
809,219693,7610548,5653806,0,0,0,1748698277565
810,220438,7610626,5653818,0,0,0,1748698277605
811,221020,7610942,5653232,0,0,0,1748698277645
812,221609,7610814,5653104,0,0,0,1748698277685
813,222430,7610632,5653131,0,0,0,1748698277725
814,223180,7610281,5652193,0,0,0,1748698277765
815,224166,7610523,5652839,0,0,0,1748698277805
816,224883,7610689,5653185,0,0,0,1748698277845
817,225130,7610425,5653057,0,0,0,1748698277885
818,224821,7610060,5652779,0,0,0,1748698277925
819,224661,7610272,5652804,0,0,0,1748698277965
820,224799,7610469,5652339,0,0,0,1748698278005
821,225145,7611194,5652344,0,0,0,1748698278045
822,225260,7612101,5652224,0,0,0,1748698278085
823,225138,7612794,5651520,0,0,0,1748698278125
824,224946,7614924,5651370,0,0,0,1748698278165
825,223911,7615670,5649389,0,0,0,1748698278205
826,223022,7613281,5646578,0,0,0,1748698278245
827,222036,7611516,5643593,0,0,0,1748698278285
828,221370,7610021,5642180,0,0,0,1748698278325
829,221297,7608564,5640869,0,0,0,1748698278365
830,221791,7607315,5641203,0,0,0,1748698278405
831,222489,7605195,5643069,0,0,0,1748698278445
832,224240,7592819,5640606,0,0,0,1748698278485
833,225637,7590418,5641004,0,0,0,1748698278525
834,226598,7590112,5641606,0,0,0,1748698278565
835,227517,7591567,5642758,0,0,0,1748698278605
836,228431,7595769,5645007,0,0,0,1748698278645
837,228676,7600682,5647567,0,0,0,1748698278685
838,228689,7605137,5649712,0,0,0,1748698278725
839,228382,7606437,5649794,0,0,0,1748698278765
840,228220,7606698,5649786,0,0,0,1748698278805
841,227987,7606617,5649503,0,0,0,1748698278845
842,228233,7606692,5649544,0,0,0,1748698278885
843,228479,7606848,5649559,0,0,0,1748698278925
844,228798,7607180,5649240,0,0,0,1748698278965
845,228651,7607088,5649249,0,0,0,1748698279005
846,227816,7606987,5648936,0,0,0,1748698279045
847,226895,7607000,5648788,0,0,0,1748698279085
848,225987,7606538,5648404,0,0,0,1748698279125
849,225494,7606062,5648126,0,0,0,1748698279165
850,225516,7605460,5647794,0,0,0,1748698279205
851,225859,7605017,5647435,0,0,0,1748698279245
852,226044,7604993,5647484,0,0,0,1748698279285
853,225845,7604635,5647330,0,0,0,1748698279325
854,225805,7604592,5647086,0,0,0,1748698279365
855,225671,7604460,5647009,0,0,0,1748698279405
856,225996,7604421,5646944,0,0,0,1748698279445
857,226193,7604449,5646695,0,0,0,1748698279485
858,226638,7604223,5646660,0,0,0,1748698279525
859,226735,7604241,5646261,0,0,0,1748698279565
860,226149,7603768,5646130,0,0,0,1748698279605
861,225144,7603466,5646053,0,0,0,1748698279645
862,224197,7603258,5645943,0,0,0,1748698279685
863,223544,7603304,5645837,0,0,0,1748698279725
864,223270,7603263,5645774,0,0,0,1748698279765
865,223382,7603389,5645468,0,0,0,1748698279805
866,223211,7603451,5645236,0,0,0,1748698279845
867,222869,7603166,5644884,0,0,0,1748698279885
868,222670,7603039,5644738,0,0,0,1748698279925
869,222442,7603129,5644624,0,0,0,1748698279965
870,222416,7602875,5644451,0,0,0,1748698280005
871,222519,7602653,5644272,0,0,0,1748698280045
872,222610,7602540,5644064,0,0,0,1748698280085
873,222842,7602694,5643992,0,0,0,1748698280125
874,222546,7602195,5643564,0,0,0,1748698280165
875,221761,7601729,5643367,0,0,0,1748698280205
876,220586,7601571,5643259,0,0,0,1748698280245
877,219548,7601005,5642663,0,0,0,1748698280285
878,218911,7601118,5642661,0,0,0,1748698280325
879,218835,7601393,5642503,0,0,0,1748698280365
880,218503,7601189,5642265,0,0,0,1748698280405
881,218163,7601355,5642510,0,0,0,1748698280445
882,217738,7601203,5642671,0,0,0,1748698280485
883,217232,7600604,5641050,0,0,0,1748698280525
884,216987,7601610,5641015,0,0,0,1748698280565
885,217067,7604024,5642434,0,0,0,1748698280605
886,216159,7603973,5640939,0,0,0,1748698280645
887,215495,7602475,5639217,0,0,0,1748698280685
888,214931,7602105,5640391,0,0,0,1748698280725
889,213616,7601749,5639413,0,0,0,1748698280765
890,212623,7604233,5641393,0,0,0,1748698280805
891,209629,7601319,5634511,0,0,0,1748698280845
892,207037,7599065,5631357,0,0,0,1748698280885
893,204685,7594923,5620351,0,0,0,1748698280925
894,201946,7588869,5617061,0,0,0,1748698280965
895,200606,7573683,5601587,0,0,0,1748698281005
896,198999,7554173,5581426,0,0,0,1748698281045
897,198538,7561047,5592296,0,0,0,1748698281085
898,198384,7552760,5582581,0,0,0,1748698281125
899,199036,7560177,5597321,0,0,0,1748698281165
900,200524,7562502,5595300,0,0,0,1748698281205
901,200872,7565161,5600464,0,0,0,1748698281261
902,201781,7571095,5610574,0,0,0,1748698281301
903,201854,7571072,5609535,0,0,0,1748698281341
904,200608,7572489,5609811,0,0,0,1748698281381
905,199662,7578387,5616685,0,0,0,1748698281421
906,199141,7580601,5619326,0,0,0,1748698281461
907,198331,7578641,5616267,0,0,0,1748698281501
908,197921,7580208,5617594,0,0,0,1748698281541
909,196308,7576394,5611636,0,0,0,1748698281581
910,193322,7562905,5595025,0,0,0,1748698281621
911,189665,7553338,5591607,0,0,0,1748698281661
912,186958,7561701,5606538,0,0,0,1748698281701
913,190975,7570149,5615698,0,0,0,1748698281741
914,200938,7585025,5625750,0,0,0,1748698281781
915,206888,7600648,5636418,0,0,0,1748698281821
916,211772,7612914,5658363,0,0,0,1748698281861
917,214009,7623581,5665217,0,0,0,1748698281901
918,214817,7627767,5685771,0,0,0,1748698281941
919,214347,7635727,5690187,0,0,0,1748698281981
920,212607,7642896,5699999,0,0,0,1748698282021
921,211603,7645893,5708486,0,0,0,1748698282061
922,209886,7654954,5715068,0,0,0,1748698282101
923,209484,7648196,5715645,0,0,0,1748698282141
924,210108,7653867,5723544,0,0,0,1748698282181
925,210264,7655664,5725116,0,0,0,1748698282221
926,210025,7663558,5729493,0,0,0,1748698282261
927,209171,7668493,5731401,0,0,0,1748698282301
928,207882,7677176,5737600,0,0,0,1748698282341
929,207195,7681262,5739079,0,0,0,1748698282381
930,207991,7678030,5737556,0,0,0,1748698282421
931,208271,7678727,5738158,0,0,0,1748698282461
932,208838,7682760,5741595,0,0,0,1748698282501
933,208241,7683460,5742586,0,0,0,1748698282541
934,207093,7684140,5743917,0,0,0,1748698282581
935,206133,7685556,5746622,0,0,0,1748698282621
936,204807,7685352,5746464,0,0,0,1748698282661
937,204132,7688224,5748911,0,0,0,1748698282701
938,203543,7686799,5747873,0,0,0,1748698282741
939,202048,7688689,5748048,0,0,0,1748698282781
940,201178,7688514,5748556,0,0,0,1748698282821
941,200427,7687498,5748511,0,0,0,1748698282861
942,199930,7689310,5749377,0,0,0,1748698282901
943,199471,7691134,5750540,0,0,0,1748698282941
944,198893,7692941,5752826,0,0,0,1748698282981
945,198633,7697277,5756738,0,0,0,1748698283021
946,197878,7701666,5756591,0,0,0,1748698283061
947,196633,7695793,5748516,0,0,0,1748698283101
948,196732,7671286,5734587,0,0,0,1748698283141
949,197858,7659483,5725083,0,0,0,1748698283181
950,197411,7666077,5725086,0,0,0,1748698283221
951,196709,7675231,5727073,0,0,0,1748698283261
952,196038,7683881,5727465,0,0,0,1748698283301
953,195160,7683496,5721966,0,0,0,1748698283341
954,193647,7689485,5723556,0,0,0,1748698283381
955,191749,7686083,5719586,0,0,0,1748698283421
956,189320,7687967,5722971,0,0,0,1748698283461
957,186789,7682578,5720595,0,0,0,1748698283501
958,184788,7684269,5722157,0,0,0,1748698283541
959,181728,7683917,5720446,0,0,0,1748698283581
960,178528,7675604,5716322,0,0,0,1748698283621
961,177117,7673658,5716309,0,0,0,1748698283661
962,176421,7672718,5717221,0,0,0,1748698283701
963,175096,7672647,5718557,0,0,0,1748698283741
964,173853,7671708,5719380,0,0,0,1748698283781
965,173574,7670954,5722011,0,0,0,1748698283821
966,173078,7672615,5722348,0,0,0,1748698283861
967,172211,7673616,5721479,0,0,0,1748698283901
968,171580,7673469,5720921,0,0,0,1748698283941
969,171125,7672653,5721954,0,0,0,1748698283981
970,171045,7672921,5725206,0,0,0,1748698284021
971,170548,7675143,5725860,0,0,0,1748698284061
972,169884,7676128,5725454,0,0,0,1748698284101
973,169091,7676671,5724009,0,0,0,1748698284141
974,168752,7676564,5723221,0,0,0,1748698284181
975,168370,7676856,5722428,0,0,0,1748698284221
976,167239,7676346,5721037,0,0,0,1748698284261
977,165084,7675357,5719519,0,0,0,1748698284301
978,162972,7672688,5717783,0,0,0,1748698284341
979,160662,7671647,5715064,0,0,0,1748698284381
980,158828,7672053,5712422,0,0,0,1748698284421
981,157556,7669659,5708809,0,0,0,1748698284461
982,156389,7668842,5707235,0,0,0,1748698284501
983,155106,7667224,5704168,0,0,0,1748698284541
984,153423,7666150,5701933,0,0,0,1748698284581
985,151695,7664477,5698168,0,0,0,1748698284621
986,150496,7660958,5696016,0,0,0,1748698284661
987,150510,7656615,5694408,0,0,0,1748698284701
988,149493,7659219,5693416,0,0,0,1748698284741
989,148424,7658951,5690445,0,0,0,1748698284781
990,147390,7656138,5687976,0,0,0,1748698284821
991,145226,7655744,5686421,0,0,0,1748698284861
992,141591,7655697,5682917,0,0,0,1748698284901
993,138528,7651328,5679170,0,0,0,1748698284941
994,135975,7650049,5677968,0,0,0,1748698284981
995,133772,7646652,5672666,0,0,0,1748698285021
996,132603,7646695,5672778,0,0,0,1748698285061
997,130803,7644207,5669459,0,0,0,1748698285101
998,128650,7640465,5665685,0,0,0,1748698285141
999,126747,7636487,5660516,0,0,0,1748698285181
1000,125004,7629645,5653567,0,0,0,1748698285221
1001,123092,7617987,5641445,0,0,0,1748698285261
1002,122129,7615580,5638887,0,0,0,1748698285301
1003,121863,7621503,5643757,0,0,0,1748698285341
1004,120998,7619249,5640114,0,0,0,1748698285381
1005,119780,7620542,5641864,0,0,0,1748698285421
1006,118218,7624224,5645968,0,0,0,1748698285461
1007,115881,7624823,5646452,0,0,0,1748698285501
1008,114081,7625984,5647918,0,0,0,1748698285541
1009,112597,7624215,5647078,0,0,0,1748698285581
1010,111538,7625072,5648709,0,0,0,1748698285621
1011,110505,7627495,5652714,0,0,0,1748698285661
1012,109531,7627728,5652817,0,0,0,1748698285701
1013,108305,7626617,5652311,0,0,0,1748698285741
1014,108199,7629403,5657418,0,0,0,1748698285781
1015,107311,7629334,5657271,0,0,0,1748698285821
1016,106321,7628652,5658404,0,0,0,1748698285861
1017,105023,7627514,5658212,0,0,0,1748698285901
1018,104752,7627522,5659724,0,0,0,1748698285941
1019,104003,7624987,5657662,0,0,0,1748698285981
1020,102825,7622558,5655790,0,0,0,1748698286021
1021,100650,7618123,5652186,0,0,0,1748698286061
1022,98302,7613577,5647316,0,0,0,1748698286101
1023,95579,7606184,5639029,0,0,0,1748698286141
1024,93914,7598963,5631913,0,0,0,1748698286181
1025,93139,7590979,5624487,0,0,0,1748698286221
1026,92642,7584965,5619363,0,0,0,1748698286261
1027,93308,7589836,5625271,0,0,0,1748698286301
1028,93665,7589141,5621959,0,0,0,1748698286341
1029,92106,7574170,5603629,0,0,0,1748698286381
1030,90998,7556727,5590683,0,0,0,1748698286421
1031,91155,7545808,5582054,0,0,0,1748698286461
1032,90774,7534513,5573392,0,0,0,1748698286501
1033,90568,7524017,5562120,0,0,0,1748698286541
1034,90898,7521221,5563522,0,0,0,1748698286581
1035,90914,7518046,5564888,0,0,0,1748698286621
1036,91195,7514434,5568423,0,0,0,1748698286661
1037,91437,7517446,5572916,0,0,0,1748698286701
1038,91711,7509812,5567893,0,0,0,1748698286741
1039,92826,7517994,5575793,0,0,0,1748698286781
1040,93764,7508433,5564786,0,0,0,1748698286821
1041,93957,7492590,5549271,0,0,0,1748698286861
1042,93393,7483268,5531502,0,0,0,1748698286901
1043,92656,7464064,5511538,0,0,0,1748698286941
1044,91846,7450703,5481874,0,0,0,1748698286981
1045,90027,7413998,5444560,0,0,0,1748698287021
1046,88816,7412705,5438639,0,0,0,1748698287061
1047,88124,7401196,5428133,0,0,0,1748698287101
1048,87923,7394116,5425208,0,0,0,1748698287141
1049,87931,7390475,5425111,0,0,0,1748698287181
1050,88012,7401956,5433944,0,0,0,1748698287221
1051,87649,7419491,5456919,0,0,0,1748698287261
1052,87040,7450547,5484401,0,0,0,1748698287301
1053,85812,7465435,5495372,0,0,0,1748698287341
1054,85647,7469063,5497029,0,0,0,1748698287381
1055,85676,7460060,5485730,0,0,0,1748698287421
1056,86632,7458132,5490443,0,0,0,1748698287461
1057,87689,7473631,5509561,0,0,0,1748698287501
1058,87039,7485239,5511971,0,0,0,1748698287541
1059,85210,7473624,5496158,0,0,0,1748698287581
1060,87815,7472412,5516204,0,0,0,1748698287621
1061,87414,7501822,5534649,0,0,0,1748698287661
1062,91253,7494922,5540822,0,0,0,1748698287701
1063,90998,7521724,5560783,0,0,0,1748698287741
1064,95382,7501819,5547788,0,0,0,1748698287781
1065,99107,7497572,5552686,0,0,0,1748698287821
1066,103460,7503414,5561074,0,0,0,1748698287861
1067,105559,7506577,5562655,0,0,0,1748698287901
1068,105702,7523847,5588812,0,0,0,1748698287941
1069,108504,7544106,5605648,0,0,0,1748698287981
1070,109494,7556020,5620778,0,0,0,1748698288021
1071,109854,7572722,5627979,0,0,0,1748698288061
1072,108284,7572233,5626106,0,0,0,1748698288101
1073,106213,7569665,5624561,0,0,0,1748698288141
1074,106278,7580547,5621507,0,0,0,1748698288181
1075,102666,7565915,5602273,0,0,0,1748698288221
1076,101064,7557681,5600098,0,0,0,1748698288261
1077,100498,7566241,5601300,0,0,0,1748698288301
1078,98932,7565516,5598699,0,0,0,1748698288341
1079,98225,7568882,5599431,0,0,0,1748698288381
1080,97413,7565261,5600396,0,0,0,1748698288421
1081,94955,7568610,5598201,0,0,0,1748698288461
1082,91840,7567016,5599587,0,0,0,1748698288501
1083,89366,7571753,5601453,0,0,0,1748698288541
1084,86568,7570642,5600468,0,0,0,1748698288581
1085,85102,7572200,5599670,0,0,0,1748698288621
1086,84646,7576275,5606011,0,0,0,1748698288661
1087,83092,7578387,5606435,0,0,0,1748698288701
1088,81587,7576769,5603265,0,0,0,1748698288741
1089,79724,7577699,5602597,0,0,0,1748698288781
1090,78133,7570974,5605532,0,0,0,1748698288821
1091,78291,7578074,5612663,0,0,0,1748698288861
1092,79650,7581718,5618775,0,0,0,1748698288901
1093,80085,7588939,5622463,0,0,0,1748698288941
1094,80784,7593344,5626297,0,0,0,1748698288981
1095,80214,7594949,5623565,0,0,0,1748698289021
1096,79690,7583937,5623255,0,0,0,1748698289061
1097,77730,7590100,5623978,0,0,0,1748698289101
1098,77772,7571980,5613788,0,0,0,1748698289141
1099,78478,7560463,5608923,0,0,0,1748698289181
1100,79212,7563524,5610496,0,0,0,1748698289221
1101,79435,7559982,5607685,0,0,0,1748698289286
1102,79958,7559017,5613131,0,0,0,1748698289326
1103,81016,7566066,5620392,0,0,0,1748698289366
1104,81149,7569742,5624218,0,0,0,1748698289406
1105,80770,7574028,5621408,0,0,0,1748698289446
1106,78392,7573680,5615075,0,0,0,1748698289486
1107,77342,7570079,5619158,0,0,0,1748698289526
1108,77472,7577900,5623286,0,0,0,1748698289566
1109,76206,7580714,5621311,0,0,0,1748698289606
1110,74758,7576960,5618210,0,0,0,1748698289646
1111,72468,7574885,5618445,0,0,0,1748698289686
1112,70406,7571905,5616949,0,0,0,1748698289726
1113,68688,7569860,5610142,0,0,0,1748698289766
1114,67047,7564803,5605140,0,0,0,1748698289806
1115,67210,7566041,5610652,0,0,0,1748698289846
1116,67828,7570101,5616687,0,0,0,1748698289886
1117,67914,7571753,5617761,0,0,0,1748698289926
1118,68269,7575666,5625848,0,0,0,1748698289966
1119,69855,7578024,5629855,0,0,0,1748698290006
1120,73433,7578944,5640697,0,0,0,1748698290046
1121,79089,7586095,5657325,0,0,0,1748698290086
1122,85330,7596213,5663492,0,0,0,1748698290126
1123,84331,7595054,5657387,0,0,0,1748698290166
1124,85756,7597442,5653995,0,0,0,1748698290206
1125,83535,7594386,5638560,0,0,0,1748698290246
1126,82455,7586022,5625329,0,0,0,1748698290286
1127,82422,7581296,5628572,0,0,0,1748698290326
1128,83382,7582569,5632349,0,0,0,1748698290366
1129,84166,7581432,5629166,0,0,0,1748698290406
1130,85184,7581460,5629479,0,0,0,1748698290446
1131,86341,7582400,5631363,0,0,0,1748698290486
1132,87548,7582803,5632319,0,0,0,1748698290526
1133,88343,7582953,5633083,0,0,0,1748698290566
1134,89094,7583185,5633794,0,0,0,1748698290606
1135,89648,7583364,5634810,0,0,0,1748698290646
1136,90561,7583764,5636371,0,0,0,1748698290686
1137,91742,7584370,5636967,0,0,0,1748698290726
1138,92765,7584802,5637733,0,0,0,1748698290766
1139,93769,7585057,5637826,0,0,0,1748698290806
1140,93789,7586734,5639396,0,0,0,1748698290846
1141,93050,7587504,5639528,0,0,0,1748698290886
1142,92086,7587183,5639700,0,0,0,1748698290926
1143,91638,7586538,5640041,0,0,0,1748698290966
1144,91791,7586594,5640534,0,0,0,1748698291006
1145,92541,7586806,5641132,0,0,0,1748698291046
1146,93302,7586840,5642029,0,0,0,1748698291086
1147,93794,7587122,5642492,0,0,0,1748698291126
1148,94344,7587289,5643160,0,0,0,1748698291166
1149,94941,7587561,5643827,0,0,0,1748698291206
1150,95490,7588141,5644287,0,0,0,1748698291246
1151,96278,7588332,5645140,0,0,0,1748698291286
1152,97144,7588896,5645954,0,0,0,1748698291326
1153,98288,7589429,5646731,0,0,0,1748698291366
1154,99173,7592016,5649996,0,0,0,1748698291406
1155,99055,7596261,5654906,0,0,0,1748698291446
1156,98332,7598968,5658187,0,0,0,1748698291486
1157,97355,7599492,5659879,0,0,0,1748698291526
1158,97072,7599242,5660164,0,0,0,1748698291566
1159,97181,7598771,5659985,0,0,0,1748698291606
1160,97980,7598315,5659880,0,0,0,1748698291646
1161,98728,7597766,5659697,0,0,0,1748698291686
1162,99225,7596937,5659370,0,0,0,1748698291726
1163,99980,7596239,5658901,0,0,0,1748698291766
1164,100650,7595209,5658264,0,0,0,1748698291806
1165,101353,7594435,5658019,0,0,0,1748698291846
1166,102370,7594059,5657921,0,0,0,1748698291886
1167,103408,7593989,5657947,0,0,0,1748698291926
1168,104704,7594068,5658059,0,0,0,1748698291966
1169,105465,7595180,5658825,0,0,0,1748698292006
1170,105138,7595862,5659438,0,0,0,1748698292046
1171,104339,7595836,5659277,0,0,0,1748698292086
1172,103605,7595344,5658941,0,0,0,1748698292126
1173,103329,7594939,5658856,0,0,0,1748698292166
1174,103936,7594760,5658577,0,0,0,1748698292206
1175,104752,7594671,5658557,0,0,0,1748698292246
1176,105474,7594708,5658606,0,0,0,1748698292286
1177,106124,7594779,5658585,0,0,0,1748698292326
1178,106545,7594802,5658779,0,0,0,1748698292366
1179,107153,7595198,5658811,0,0,0,1748698292406
1180,107805,7595382,5658911,0,0,0,1748698292446
1181,108594,7595750,5659087,0,0,0,1748698292486
1182,109528,7596146,5659060,0,0,0,1748698292526
1183,110576,7596468,5659136,0,0,0,1748698292566
1184,111261,7596308,5659105,0,0,0,1748698292606
1185,110837,7596239,5659072,0,0,0,1748698292646
1186,110227,7595909,5658895,0,0,0,1748698292686
1187,109808,7595999,5658859,0,0,0,1748698292726
1188,109667,7596209,5658911,0,0,0,1748698292766
1189,110126,7596559,5658911,0,0,0,1748698292806
1190,110834,7596793,5658817,0,0,0,1748698292846
1191,111186,7596745,5658618,0,0,0,1748698292886
1192,111618,7597097,5658614,0,0,0,1748698292926
1193,112014,7597069,5658387,0,0,0,1748698292966
1194,112340,7597406,5658372,0,0,0,1748698293006
1195,113018,7597611,5658234,0,0,0,1748698293046
1196,113736,7597945,5658229,0,0,0,1748698293086
1197,114666,7598153,5658178,0,0,0,1748698293126
1198,115422,7598020,5658066,0,0,0,1748698293166
1199,115542,7597879,5658041,0,0,0,1748698293206
1200,114869,7597557,5657884,0,0,0,1748698293246
1201,114060,7597613,5657852,0,0,0,1748698293286
1202,113590,7597619,5657755,0,0,0,1748698293326
1203,113592,7597722,5657820,0,0,0,1748698293366
1204,113962,7597934,5657932,0,0,0,1748698293406
1205,114430,7598062,5657820,0,0,0,1748698293446
1206,114682,7597909,5657776,0,0,0,1748698293486
1207,114921,7598011,5657777,0,0,0,1748698293526
1208,115105,7598218,5657767,0,0,0,1748698293566
1209,115603,7598198,5657699,0,0,0,1748698293606
1210,116276,7598257,5658011,0,0,0,1748698293646
1211,117024,7598670,5657787,0,0,0,1748698293686
1212,117813,7598547,5658040,0,0,0,1748698293726
1213,118613,7598655,5657813,0,0,0,1748698293766
1214,118391,7598288,5657710,0,0,0,1748698293806
1215,117622,7598026,5657526,0,0,0,1748698293846
1216,116862,7597805,5657553,0,0,0,1748698293886
1217,116316,7597904,5657586,0,0,0,1748698293926
1218,116530,7598023,5657473,0,0,0,1748698293966
1219,116985,7598180,5657665,0,0,0,1748698294006
1220,117265,7598343,5657637,0,0,0,1748698294046
1221,117632,7598230,5657762,0,0,0,1748698294086
1222,117830,7598241,5657717,0,0,0,1748698294126
1223,117938,7598405,5657645,0,0,0,1748698294166
1224,118401,7598566,5657815,0,0,0,1748698294206
1225,119080,7598607,5657817,0,0,0,1748698294246
1226,119784,7598804,5657849,0,0,0,1748698294286
1227,120767,7598840,5657690,0,0,0,1748698294326
1228,121008,7598615,5657931,0,0,0,1748698294366
1229,120553,7598381,5657651,0,0,0,1748698294406
1230,119790,7598051,5657409,0,0,0,1748698294446
1231,119051,7597864,5657523,0,0,0,1748698294486
1232,118849,7597972,5657693,0,0,0,1748698294526
1233,119029,7598066,5657698,0,0,0,1748698294566
1234,119622,7598213,5657752,0,0,0,1748698294606
1235,119898,7598213,5657773,0,0,0,1748698294646
1236,120231,7598019,5657870,0,0,0,1748698294686
1237,120438,7598045,5657816,0,0,0,1748698294726
1238,120830,7597992,5657905,0,0,0,1748698294766
1239,121471,7598242,5657989,0,0,0,1748698294806
1240,122196,7598220,5658072,0,0,0,1748698294846
1241,122964,7598525,5658123,0,0,0,1748698294886
1242,123826,7598443,5658263,0,0,0,1748698294926
1243,124206,7598225,5658350,0,0,0,1748698294966
1244,123774,7597924,5658225,0,0,0,1748698295006
1245,122929,7597818,5658267,0,0,0,1748698295046
1246,122317,7597627,5658384,0,0,0,1748698295086
1247,122262,7597787,5658460,0,0,0,1748698295126
1248,122691,7597904,5658416,0,0,0,1748698295166
1249,123139,7597947,5658499,0,0,0,1748698295206
1250,123491,7597998,5658478,0,0,0,1748698295246
1251,123611,7598114,5658552,0,0,0,1748698295286
1252,123935,7597869,5658412,0,0,0,1748698295326
1253,124257,7598100,5658555,0,0,0,1748698295366
1254,124802,7598083,5658592,0,0,0,1748698295406
1255,125392,7598359,5658609,0,0,0,1748698295446
1256,126252,7598430,5658597,0,0,0,1748698295486
1257,126880,7598498,5658756,0,0,0,1748698295526
1258,127006,7598047,5658534,0,0,0,1748698295566
1259,126167,7597686,5658402,0,0,0,1748698295606
1260,125443,7597458,5658167,0,0,0,1748698295646
1261,124968,7597455,5658052,0,0,0,1748698295686
1262,124909,7597519,5658039,0,0,0,1748698295726
1263,125325,7597723,5658021,0,0,0,1748698295766
1264,125715,7597401,5657893,0,0,0,1748698295806
1265,125958,7597421,5657744,0,0,0,1748698295846
1266,126065,7597561,5657743,0,0,0,1748698295886
1267,126472,7597414,5657792,0,0,0,1748698295926
1268,126743,7597309,5657668,0,0,0,1748698295966
1269,127151,7597486,5657533,0,0,0,1748698296006
1270,127818,7597471,5657607,0,0,0,1748698296046
1271,128616,7597325,5657684,0,0,0,1748698296086
1272,129229,7597324,5657477,0,0,0,1748698296126
1273,129192,7596927,5657500,0,0,0,1748698296166
1274,128239,7596674,5657160,0,0,0,1748698296206
1275,127368,7596463,5657273,0,0,0,1748698296246
1276,126929,7596534,5657162,0,0,0,1748698296286
1277,126953,7596588,5657102,0,0,0,1748698296326
1278,127413,7596679,5657108,0,0,0,1748698296366
1279,127734,7596313,5656920,0,0,0,1748698296406
1280,127950,7596414,5656976,0,0,0,1748698296446
1281,128254,7596214,5656832,0,0,0,1748698296486
1282,128356,7596181,5656628,0,0,0,1748698296526
1283,128760,7596296,5656702,0,0,0,1748698296566
1284,129494,7596362,5656626,0,0,0,1748698296606
1285,130063,7596519,5656705,0,0,0,1748698296646
1286,130978,7596502,5656565,0,0,0,1748698296686
1287,131525,7596376,5656684,0,0,0,1748698296726
1288,131399,7596033,5656456,0,0,0,1748698296766
1289,130289,7595618,5656215,0,0,0,1748698296806
1290,129477,7595335,5656226,0,0,0,1748698296846
1291,129088,7595075,5656270,0,0,0,1748698296886
1292,129180,7595330,5656085,0,0,0,1748698296926
1293,129515,7595040,5656037,0,0,0,1748698296966
1294,130036,7594858,5655824,0,0,0,1748698297006
1295,130118,7594844,5655908,0,0,0,1748698297046
1296,130308,7594707,5655708,0,0,0,1748698297086
1297,130712,7594932,5655642,0,0,0,1748698297126
1298,131174,7594900,5655573,0,0,0,1748698297166
1299,131899,7594906,5655523,0,0,0,1748698297206
1300,132640,7594958,5655464,0,0,0,1748698297246
1301,133296,7594916,5655326,0,0,0,1748698297303
1302,133214,7594277,5654985,0,0,0,1748698297343
1303,132362,7593853,5654708,0,0,0,1748698297383
1304,131381,7593439,5654572,0,0,0,1748698297423
1305,130855,7593318,5654446,0,0,0,1748698297463
1306,131064,7593305,5654335,0,0,0,1748698297503
1307,131421,7593194,5654142,0,0,0,1748698297543
1308,131685,7592910,5653909,0,0,0,1748698297583
1309,131851,7592560,5653632,0,0,0,1748698297623
1310,131876,7592485,5653507,0,0,0,1748698297663
1311,132226,7592277,5653336,0,0,0,1748698297703
1312,132730,7592166,5653230,0,0,0,1748698297743
1313,133006,7592183,5653232,0,0,0,1748698297783
1314,133769,7591895,5653345,0,0,0,1748698297823
1315,134562,7592053,5653164,0,0,0,1748698297863
1316,135353,7591980,5653057,0,0,0,1748698297903
1317,135751,7591479,5653107,0,0,0,1748698297943
1318,135127,7591218,5652937,0,0,0,1748698297983
1319,134342,7590743,5652684,0,0,0,1748698298023
1320,133815,7590590,5652542,0,0,0,1748698298063
1321,133802,7590338,5652491,0,0,0,1748698298103
1322,134136,7590354,5652345,0,0,0,1748698298143
1323,134625,7590234,5652218,0,0,0,1748698298183
1324,134951,7590051,5651969,0,0,0,1748698298223
1325,135097,7589753,5651881,0,0,0,1748698298263
1326,135426,7589722,5651639,0,0,0,1748698298303
1327,135775,7589536,5651588,0,0,0,1748698298343
1328,136143,7589292,5651339,0,0,0,1748698298383
1329,136688,7589271,5651123,0,0,0,1748698298423
1330,137429,7589212,5650954,0,0,0,1748698298463
1331,138357,7588981,5650713,0,0,0,1748698298503
1332,138889,7588652,5649999,0,0,0,1748698298543
1333,138678,7587957,5649733,0,0,0,1748698298583
1334,137883,7587354,5649115,0,0,0,1748698298623
1335,137131,7586865,5648690,0,0,0,1748698298663
1336,136887,7586285,5648126,0,0,0,1748698298703
1337,137090,7585757,5647507,0,0,0,1748698298743
1338,137387,7585076,5646417,0,0,0,1748698298783
1339,137844,7584417,5645747,0,0,0,1748698298823
1340,137909,7583886,5645077,0,0,0,1748698298863
1341,138223,7583364,5644669,0,0,0,1748698298903
1342,138438,7583053,5644221,0,0,0,1748698298943
1343,138910,7582553,5643624,0,0,0,1748698298983
1344,139479,7582037,5643220,0,0,0,1748698299023
1345,140344,7581842,5642674,0,0,0,1748698299063
1346,141162,7581256,5642148,0,0,0,1748698299103
1347,141910,7580821,5641698,0,0,0,1748698299143
1348,142146,7580256,5641254,0,0,0,1748698299183
1349,141458,7579520,5640788,0,0,0,1748698299223
1350,140582,7578963,5640562,0,0,0,1748698299263
1351,140104,7578677,5640154,0,0,0,1748698299303
1352,140113,7578264,5639856,0,0,0,1748698299343
1353,140372,7578191,5639487,0,0,0,1748698299383
1354,140831,7577944,5639395,0,0,0,1748698299423
1355,141011,7577706,5639232,0,0,0,1748698299463
1356,141071,7577403,5638760,0,0,0,1748698299503
1357,141347,7577236,5638329,0,0,0,1748698299543
1358,141563,7577094,5637874,0,0,0,1748698299583
1359,141937,7576784,5637372,0,0,0,1748698299623
1360,142367,7576541,5636910,0,0,0,1748698299663
1361,143227,7576472,5636797,0,0,0,1748698299703
1362,143779,7576226,5636576,0,0,0,1748698299743
1363,144291,7576173,5636236,0,0,0,1748698299783
1364,144053,7575613,5635766,0,0,0,1748698299823
1365,142926,7575035,5635202,0,0,0,1748698299863
1366,141836,7574115,5634309,0,0,0,1748698299903
1367,141162,7573626,5633662,0,0,0,1748698299943
1368,141039,7573319,5633099,0,0,0,1748698299983
1369,141090,7572623,5632828,0,0,0,1748698300023
1370,141255,7572453,5632409,0,0,0,1748698300063
1371,141036,7571602,5631860,0,0,0,1748698300103
1372,140756,7571129,5631818,0,0,0,1748698300143
1373,140842,7570965,5632052,0,0,0,1748698300183
1374,140993,7570536,5631923,0,0,0,1748698300223
1375,141117,7569955,5631502,0,0,0,1748698300263
1376,141467,7569451,5630774,0,0,0,1748698300303
1377,141989,7568897,5629646,0,0,0,1748698300343
1378,142633,7567835,5629056,0,0,0,1748698300383
1379,143030,7567217,5628734,0,0,0,1748698300423
1380,142600,7566714,5628441,0,0,0,1748698300463
1381,141527,7565850,5627588,0,0,0,1748698300503
1382,140345,7564571,5626506,0,0,0,1748698300543
1383,139461,7563418,5625098,0,0,0,1748698300583
1384,139392,7562674,5624183,0,0,0,1748698300623
1385,139507,7561512,5622961,0,0,0,1748698300663
1386,139671,7560811,5622464,0,0,0,1748698300703
1387,139659,7560124,5622427,0,0,0,1748698300743
1388,139657,7559560,5622302,0,0,0,1748698300783
1389,139666,7559494,5622357,0,0,0,1748698300823
1390,140012,7559219,5621595,0,0,0,1748698300863
1391,140335,7558600,5619940,0,0,0,1748698300903
1392,140806,7557240,5616467,0,0,0,1748698300943
1393,140722,7555472,5607468,0,0,0,1748698300983
1394,140317,7552106,5596785,0,0,0,1748698301023
1395,139583,7547318,5587834,0,0,0,1748698301063
1396,139697,7544329,5585300,0,0,0,1748698301103
1397,139094,7540960,5583706,0,0,0,1748698301143
1398,139741,7539775,5588457,0,0,0,1748698301183
1399,139695,7539108,5589865,0,0,0,1748698301223
1400,139942,7539473,5587402,0,0,0,1748698301263
1401,139540,7540182,5589384,0,0,0,1748698301303
1402,139958,7542391,5599736,0,0,0,1748698301343
1403,139528,7545339,5597354,0,0,0,1748698301383
1404,139853,7547233,5611004,0,0,0,1748698301423
1405,140635,7551096,5616315,0,0,0,1748698301463
1406,141028,7548653,5609616,0,0,0,1748698301503
1407,140530,7543412,5614612,0,0,0,1748698301543
1408,143128,7546799,5617014,0,0,0,1748698301583
1409,144805,7547404,5615606,0,0,0,1748698301623
1410,146388,7548591,5613410,0,0,0,1748698301663
1411,146536,7547119,5603445,0,0,0,1748698301703
1412,145467,7543167,5589727,0,0,0,1748698301743
1413,143403,7532616,5573695,0,0,0,1748698301783
1414,140544,7510660,5547008,0,0,0,1748698301823
1415,138725,7480809,5519239,0,0,0,1748698301863
1416,138036,7447865,5494066,0,0,0,1748698301903
1417,137882,7421756,5470550,0,0,0,1748698301943
1418,138037,7413724,5465768,0,0,0,1748698301983
1419,138028,7404950,5457041,0,0,0,1748698302023
1420,137808,7399186,5453000,0,0,0,1748698302063
1421,138052,7401735,5456773,0,0,0,1748698302103
1422,137827,7401028,5456005,0,0,0,1748698302143
1423,137989,7399140,5455602,0,0,0,1748698302183
1424,138154,7397632,5455574,0,0,0,1748698302223
1425,138551,7396757,5455927,0,0,0,1748698302263
1426,138979,7398519,5459284,0,0,0,1748698302303
1427,139727,7398454,5459565,0,0,0,1748698302343
1428,139820,7401044,5461890,0,0,0,1748698302383
1429,139126,7396160,5456234,0,0,0,1748698302423
1430,138229,7397549,5458559,0,0,0,1748698302463
1431,138059,7398206,5459174,0,0,0,1748698302503
1432,138118,7396534,5456810,0,0,0,1748698302543
1433,138678,7397095,5457262,0,0,0,1748698302583
1434,139746,7398748,5459326,0,0,0,1748698302623
1435,140739,7398785,5458535,0,0,0,1748698302663
1436,141508,7397761,5457857,0,0,0,1748698302703
1437,142572,7399962,5459962,0,0,0,1748698302743
1438,143438,7398974,5458844,0,0,0,1748698302783
1439,144629,7400565,5460395,0,0,0,1748698302823
1440,146024,7401135,5460930,0,0,0,1748698302863
1441,147255,7401655,5461169,0,0,0,1748698302903
1442,148663,7402066,5461300,0,0,0,1748698302943
1443,150011,7402659,5461992,0,0,0,1748698302983
1444,150962,7403860,5463182,0,0,0,1748698303023
1445,151295,7405368,5464818,0,0,0,1748698303063
1446,151309,7404864,5464636,0,0,0,1748698303103
1447,151627,7405496,5465247,0,0,0,1748698303143
1448,152004,7406264,5465967,0,0,0,1748698303183
1449,152905,7406780,5466806,0,0,0,1748698303223
1450,154061,7407314,5467284,0,0,0,1748698303263
1451,154851,7407055,5466961,0,0,0,1748698303303
1452,155678,7407291,5467498,0,0,0,1748698303343
1453,156527,7408120,5468322,0,0,0,1748698303383
1454,157426,7408809,5468905,0,0,0,1748698303423
1455,158338,7409034,5469077,0,0,0,1748698303463
1456,159338,7408532,5468965,0,0,0,1748698303503
1457,160506,7408321,5468476,0,0,0,1748698303543
1458,161662,7409432,5469613,0,0,0,1748698303583
1459,162697,7409550,5469809,0,0,0,1748698303623
1460,163441,7409763,5470236,0,0,0,1748698303663
1461,163287,7409581,5470439,0,0,0,1748698303703
1462,163047,7410178,5470988,0,0,0,1748698303743
1463,162999,7410039,5471081,0,0,0,1748698303783
1464,163360,7409565,5470562,0,0,0,1748698303823
1465,163902,7409106,5469916,0,0,0,1748698303863
1466,164599,7409451,5470557,0,0,0,1748698303903
1467,165157,7410316,5471645,0,0,0,1748698303943
1468,165641,7410112,5471376,0,0,0,1748698303983
1469,166060,7410256,5471449,0,0,0,1748698304023
1470,166681,7410118,5471302,0,0,0,1748698304063
1471,167415,7409540,5470661,0,0,0,1748698304103
1472,168045,7409315,5470542,0,0,0,1748698304143
1473,169022,7410109,5470957,0,0,0,1748698304183
1474,170044,7410508,5471742,0,0,0,1748698304223
1475,170694,7410026,5471125,0,0,0,1748698304263
1476,171095,7410338,5471782,0,0,0,1748698304303
1477,170805,7411012,5472648,0,0,0,1748698304343
1478,170359,7411874,5473603,0,0,0,1748698304383
1479,169932,7413038,5475026,0,0,0,1748698304423
1480,169887,7415670,5477683,0,0,0,1748698304463
1481,170271,7413967,5476855,0,0,0,1748698304503
1482,171086,7425853,5488828,0,0,0,1748698304543
1483,171225,7423842,5484829,0,0,0,1748698304583
1484,171267,7433408,5496020,0,0,0,1748698304623
1485,171921,7447560,5510111,0,0,0,1748698304663
1486,172182,7457089,5520373,0,0,0,1748698304703
1487,172733,7478804,5543703,0,0,0,1748698304743
1488,173726,7501909,5567583,0,0,0,1748698304783
1489,175611,7530046,5600453,0,0,0,1748698304823
1490,177326,7546267,5612318,0,0,0,1748698304863
1491,178195,7552078,5618998,0,0,0,1748698304903
1492,178782,7557792,5625745,0,0,0,1748698304943
1493,178063,7560907,5625911,0,0,0,1748698304983
1494,177011,7562256,5626167,0,0,0,1748698305023
1495,176297,7563720,5628797,0,0,0,1748698305063
1496,175996,7566006,5629086,0,0,0,1748698305103
1497,175638,7567060,5630408,0,0,0,1748698305143
1498,175608,7571301,5635886,0,0,0,1748698305183
1499,175717,7574463,5640217,0,0,0,1748698305223
1500,175949,7576070,5640735,0,0,0,1748698305263
1501,175639,7577026,5640620,0,0,0,1748698305322
1502,175626,7578162,5640553,0,0,0,1748698305362
1503,175562,7578432,5641609,0,0,0,1748698305402
1504,176000,7579166,5641390,0,0,0,1748698305442
1505,176526,7579973,5641741,0,0,0,1748698305482
1506,177653,7577306,5641736,0,0,0,1748698305522
1507,178725,7577276,5639843,0,0,0,1748698305562
1508,178720,7576716,5639622,0,0,0,1748698305602
1509,179439,7577174,5641649,0,0,0,1748698305642
1510,179678,7580481,5641550,0,0,0,1748698305682
1511,179898,7584087,5645184,0,0,0,1748698305722
1512,180370,7590808,5649576,0,0,0,1748698305762
1513,180035,7595968,5651120,0,0,0,1748698305802
1514,179670,7599130,5655843,0,0,0,1748698305842
1515,179455,7602729,5659501,0,0,0,1748698305882
1516,178894,7605024,5661167,0,0,0,1748698305922
1517,177723,7606428,5660959,0,0,0,1748698305962
1518,176413,7606464,5660392,0,0,0,1748698306002
1519,175416,7605851,5657928,0,0,0,1748698306042
1520,174851,7604217,5657228,0,0,0,1748698306082
1521,174765,7603930,5656337,0,0,0,1748698306122
1522,174811,7604408,5655347,0,0,0,1748698306162
1523,174493,7604505,5656184,0,0,0,1748698306202
1524,174246,7603257,5657677,0,0,0,1748698306242
1525,173101,7603388,5658638,0,0,0,1748698306282
1526,171868,7603466,5658842,0,0,0,1748698306322
1527,170898,7602967,5658097,0,0,0,1748698306362
1528,170222,7602514,5657292,0,0,0,1748698306402
1529,170405,7601982,5657063,0,0,0,1748698306442
1530,170044,7601781,5655663,0,0,0,1748698306482
1531,170660,7598050,5655399,0,0,0,1748698306522
1532,173601,7596153,5662987,0,0,0,1748698306562
1533,172051,7598982,5650784,0,0,0,1748698306602
1534,167430,7584332,5629958,0,0,0,1748698306642
1535,165558,7577790,5622119,0,0,0,1748698306682
1536,164410,7573437,5616044,0,0,0,1748698306722
1537,163859,7571568,5618212,0,0,0,1748698306762
1538,164160,7571582,5617708,0,0,0,1748698306802
1539,164137,7570951,5616939,0,0,0,1748698306842
1540,164644,7568945,5616347,0,0,0,1748698306882
1541,164237,7565870,5613425,0,0,0,1748698306922
1542,163279,7561847,5609597,0,0,0,1748698306962
1543,163341,7559639,5612430,0,0,0,1748698307002
1544,165051,7560752,5614856,0,0,0,1748698307042
1545,167514,7557682,5606004,0,0,0,1748698307082
1546,169218,7558076,5607152,0,0,0,1748698307122
1547,171095,7561689,5616491,0,0,0,1748698307162
1548,170452,7556491,5602856,0,0,0,1748698307202
1549,169712,7552189,5597289,0,0,0,1748698307242
1550,169707,7554087,5598213,0,0,0,1748698307282
1551,169361,7552900,5591799,0,0,0,1748698307322
1552,169058,7549081,5584480,0,0,0,1748698307362
1553,168313,7542339,5572749,0,0,0,1748698307402
1554,167695,7540891,5569863,0,0,0,1748698307442
1555,167693,7538881,5565056,0,0,0,1748698307482
1556,166833,7534214,5559346,0,0,0,1748698307522
1557,166788,7534516,5559407,0,0,0,1748698307562
1558,166052,7533785,5557826,0,0,0,1748698307602
1559,165312,7533208,5558443,0,0,0,1748698307642
1560,164382,7531804,5557748,0,0,0,1748698307682
1561,163793,7526244,5553206,0,0,0,1748698307722
1562,164849,7523585,5554566,0,0,0,1748698307762
1563,166297,7523327,5556492,0,0,0,1748698307802
1564,167277,7523829,5559382,0,0,0,1748698307842
1565,169589,7528739,5568441,0,0,0,1748698307882
1566,169697,7529580,5568517,0,0,0,1748698307922
1567,171067,7533648,5574027,0,0,0,1748698307962
1568,171824,7534349,5574477,0,0,0,1748698308002
1569,172738,7536436,5578089,0,0,0,1748698308042
1570,173624,7538578,5580478,0,0,0,1748698308082
1571,174446,7541711,5583060,0,0,0,1748698308122
1572,174940,7549362,5592686,0,0,0,1748698308162
1573,176389,7553213,5595998,0,0,0,1748698308202
1574,175548,7555256,5596791,0,0,0,1748698308242
1575,174309,7557572,5595781,0,0,0,1748698308282
1576,171687,7558380,5588624,0,0,0,1748698308322
1577,170084,7560676,5587889,0,0,0,1748698308362
1578,169091,7565030,5590760,0,0,0,1748698308402
1579,168151,7571389,5594430,0,0,0,1748698308442
1580,170404,7578177,5609502,0,0,0,1748698308482
1581,173986,7589720,5625569,0,0,0,1748698308522
1582,175914,7594766,5634590,0,0,0,1748698308562
1583,179593,7594561,5638509,0,0,0,1748698308602
1584,180734,7597522,5640412,0,0,0,1748698308642
1585,183270,7594487,5641592,0,0,0,1748698308682
1586,185808,7596356,5645366,0,0,0,1748698308722
1587,187929,7599228,5646263,0,0,0,1748698308762
1588,189962,7601831,5653903,0,0,0,1748698308802
1589,192975,7606300,5663226,0,0,0,1748698308842
1590,194112,7606785,5667737,0,0,0,1748698308882
1591,196952,7615802,5681680,0,0,0,1748698308922
1592,199306,7615188,5683677,0,0,0,1748698308962
1593,201415,7619895,5692888,0,0,0,1748698309002
1594,205059,7627912,5702726,0,0,0,1748698309042
1595,206728,7621990,5703146,0,0,0,1748698309082
1596,206999,7625877,5701106,0,0,0,1748698309122
1597,206559,7623110,5698309,0,0,0,1748698309162
1598,206024,7622471,5696447,0,0,0,1748698309202
1599,205946,7624940,5695653,0,0,0,1748698309242
1600,205384,7622039,5694111,0,0,0,1748698309282
1601,205311,7621344,5693591,0,0,0,1748698309322
1602,205099,7622130,5691163,0,0,0,1748698309362
1603,204498,7621515,5687599,0,0,0,1748698309402
1604,203904,7621195,5684859,0,0,0,1748698309442
1605,202457,7619417,5680294,0,0,0,1748698309482
1606,200858,7617052,5679020,0,0,0,1748698309522
1607,199140,7618065,5670705,0,0,0,1748698309562
1608,195884,7611597,5660557,0,0,0,1748698309602
1609,196869,7609488,5680988,0,0,0,1748698309642
1610,198595,7617256,5681198,0,0,0,1748698309682
1611,197457,7623745,5680797,0,0,0,1748698309722
1612,197846,7618807,5682962,0,0,0,1748698309762
1613,200075,7617978,5689668,0,0,0,1748698309802
1614,196866,7614722,5669992,0,0,0,1748698309842
1615,197112,7603649,5667359,0,0,0,1748698309882
1616,196750,7607613,5664513,0,0,0,1748698309922
1617,196885,7605794,5666452,0,0,0,1748698309962
1618,197342,7609889,5671921,0,0,0,1748698310002
1619,197278,7611947,5667892,0,0,0,1748698310042
1620,195154,7614133,5661197,0,0,0,1748698310082
1621,192037,7616819,5664950,0,0,0,1748698310122
1622,187511,7615876,5656188,0,0,0,1748698310162
1623,182936,7602672,5637996,0,0,0,1748698310202
1624,178013,7583861,5614152,0,0,0,1748698310242
1625,175739,7580415,5612525,0,0,0,1748698310282
1626,174029,7580594,5612567,0,0,0,1748698310322
1627,171872,7581720,5613630,0,0,0,1748698310362
1628,170427,7583837,5617178,0,0,0,1748698310402
1629,168414,7585486,5617177,0,0,0,1748698310442
1630,166673,7585427,5617151,0,0,0,1748698310482
1631,165250,7584646,5616186,0,0,0,1748698310522
1632,164324,7584896,5616948,0,0,0,1748698310562
1633,163594,7585995,5619067,0,0,0,1748698310602
1634,163174,7588124,5622259,0,0,0,1748698310642
1635,161808,7590058,5624621,0,0,0,1748698310682
1636,159467,7591333,5626019,0,0,0,1748698310722
1637,156797,7592639,5627136,0,0,0,1748698310762
1638,154260,7593991,5628304,0,0,0,1748698310802
1639,152639,7595119,5629470,0,0,0,1748698310842
1640,151099,7595749,5630122,0,0,0,1748698310882
1641,149800,7596484,5631121,0,0,0,1748698310922
1642,148159,7595767,5629851,0,0,0,1748698310962
1643,146374,7592885,5627302,0,0,0,1748698311002
1644,144838,7586361,5621769,0,0,0,1748698311042
1645,143678,7586160,5622630,0,0,0,1748698311082
1646,143293,7582708,5642987,0,0,0,1748698311122
1647,149591,7592142,5669144,0,0,0,1748698311162
1648,156313,7598823,5691357,0,0,0,1748698311202
1649,158957,7611930,5694898,0,0,0,1748698311242
1650,156993,7618385,5693468,0,0,0,1748698311282
1651,154137,7620003,5688699,0,0,0,1748698311322
1652,151559,7617736,5686157,0,0,0,1748698311362
1653,149198,7616335,5684109,0,0,0,1748698311402
1654,147491,7618036,5683882,0,0,0,1748698311442
1655,146588,7616763,5685542,0,0,0,1748698311482
1656,147437,7613788,5695016,0,0,0,1748698311522
1657,147497,7619969,5699540,0,0,0,1748698311562
1658,146922,7624329,5700577,0,0,0,1748698311602
1659,145857,7626287,5703565,0,0,0,1748698311642
1660,144953,7623662,5703207,0,0,0,1748698311682
1661,144387,7633910,5703041,0,0,0,1748698311722
1662,144347,7624505,5699237,0,0,0,1748698311762
1663,146103,7623710,5700236,0,0,0,1748698311802
1664,149195,7623511,5699335,0,0,0,1748698311842
1665,151745,7620450,5698202,0,0,0,1748698311882
1666,152751,7620102,5696654,0,0,0,1748698311922
1667,152174,7618829,5693358,0,0,0,1748698311962
1668,153132,7615597,5689577,0,0,0,1748698312002
1669,152875,7614993,5680089,0,0,0,1748698312042
1670,150790,7613040,5673726,0,0,0,1748698312082
1671,149586,7611452,5669443,0,0,0,1748698312122
1672,149296,7605187,5668818,0,0,0,1748698312162
1673,149970,7604356,5672672,0,0,0,1748698312202
1674,150482,7602999,5671813,0,0,0,1748698312242
1675,150383,7600489,5666172,0,0,0,1748698312282
1676,148885,7586698,5645677,0,0,0,1748698312322
1677,145738,7560820,5614844,0,0,0,1748698312362
1678,144215,7542770,5601226,0,0,0,1748698312402
1679,143122,7532623,5590212,0,0,0,1748698312442
1680,141282,7521423,5580466,0,0,0,1748698312482
1681,138862,7513584,5577584,0,0,0,1748698312522
1682,136755,7512899,5576001,0,0,0,1748698312562
1683,134456,7509006,5572910,0,0,0,1748698312602
1684,133005,7509393,5571786,0,0,0,1748698312642
1685,132797,7510385,5571439,0,0,0,1748698312682
1686,132748,7512408,5572522,0,0,0,1748698312722
1687,132371,7511883,5569564,0,0,0,1748698312762
1688,131829,7512229,5570968,0,0,0,1748698312802
1689,131285,7515485,5573755,0,0,0,1748698312842
1690,131123,7516114,5573057,0,0,0,1748698312882
1691,130797,7514287,5571395,0,0,0,1748698312922
1692,130784,7513627,5570245,0,0,0,1748698312962
1693,130974,7513794,5570847,0,0,0,1748698313002
1694,131485,7512204,5568848,0,0,0,1748698313042
1695,132147,7512406,5568237,0,0,0,1748698313082
1696,131888,7510725,5567219,0,0,0,1748698313122
1697,131068,7511040,5567681,0,0,0,1748698313162
1698,130044,7510045,5566327,0,0,0,1748698313202
1699,129381,7509243,5565834,0,0,0,1748698313242
1700,129630,7509595,5565787,0,0,0,1748698313282
1701,130017,7508895,5564375,0,0,0,1748698313347
1702,130683,7509182,5565450,0,0,0,1748698313387
1703,131835,7512404,5567462,0,0,0,1748698313427
1704,132207,7512772,5568043,0,0,0,1748698313467
1705,133087,7513071,5567781,0,0,0,1748698313507
1706,133682,7512251,5566986,0,0,0,1748698313547
1707,134572,7512576,5566973,0,0,0,1748698313587
1708,135695,7512398,5567064,0,0,0,1748698313627
1709,136842,7512939,5566780,0,0,0,1748698313667
1710,137669,7513738,5567937,0,0,0,1748698313707
1711,137655,7513714,5568007,0,0,0,1748698313747
1712,137074,7514018,5568008,0,0,0,1748698313787
1713,136576,7513414,5567641,0,0,0,1748698313827
1714,136680,7512811,5566919,0,0,0,1748698313867
1715,137224,7512874,5566613,0,0,0,1748698313907
1716,138079,7513131,5567233,0,0,0,1748698313947
1717,138814,7513313,5566705,0,0,0,1748698313987
1718,139235,7513357,5566923,0,0,0,1748698314027
1719,139784,7513247,5566937,0,0,0,1748698314067
1720,140226,7513709,5566949,0,0,0,1748698314107
1721,141016,7513531,5566541,0,0,0,1748698314147
1722,141707,7512708,5566041,0,0,0,1748698314187
1723,142638,7512394,5565318,0,0,0,1748698314227
1724,143720,7512604,5565376,0,0,0,1748698314267
1725,144503,7512300,5565112,0,0,0,1748698314307
1726,144349,7511823,5564766,0,0,0,1748698314347
1727,143761,7511163,5564316,0,0,0,1748698314387
1728,142878,7510161,5563396,0,0,0,1748698314427
1729,142237,7508250,5561476,0,0,0,1748698314467
1730,142495,7507347,5561044,0,0,0,1748698314507
1731,142984,7507471,5560658,0,0,0,1748698314547
1732,143462,7507548,5560699,0,0,0,1748698314587
1733,143922,7507148,5560832,0,0,0,1748698314627
1734,144122,7507780,5561154,0,0,0,1748698314667
1735,144707,7507785,5560873,0,0,0,1748698314707
1736,145263,7507375,5560773,0,0,0,1748698314747
1737,146049,7507866,5560685,0,0,0,1748698314787
1738,146737,7507364,5560491,0,0,0,1748698314827
1739,147657,7506902,5559968,0,0,0,1748698314867
1740,148720,7507536,5560450,0,0,0,1748698314907
1741,149393,7507653,5560619,0,0,0,1748698314947
1742,149109,7507172,5561107,0,0,0,1748698314987
1743,148376,7506948,5560815,0,0,0,1748698315027
1744,147748,7507090,5560979,0,0,0,1748698315067
1745,147865,7507183,5560613,0,0,0,1748698315107
1746,148414,7507351,5560421,0,0,0,1748698315147
1747,148907,7506544,5559839,0,0,0,1748698315187
1748,149251,7504584,5558139,0,0,0,1748698315227
1749,149346,7501143,5554676,0,0,0,1748698315267
1750,149253,7499260,5553555,0,0,0,1748698315307
1751,149150,7494476,5548779,0,0,0,1748698315347
1752,149176,7490286,5544374,0,0,0,1748698315387
1753,149401,7487952,5545232,0,0,0,1748698315427
1754,150147,7492471,5551602,0,0,0,1748698315467
1755,150815,7493685,5551823,0,0,0,1748698315507
1756,151307,7498702,5560098,0,0,0,1748698315547
1757,151706,7506100,5571000,0,0,0,1748698315587
1758,151057,7509891,5573905,0,0,0,1748698315627
1759,150576,7517963,5587734,0,0,0,1748698315667
1760,149926,7526822,5590743,0,0,0,1748698315707
1761,150202,7528865,5592252,0,0,0,1748698315747
1762,150844,7533801,5601700,0,0,0,1748698315787
1763,151717,7540744,5606746,0,0,0,1748698315827
1764,152239,7543601,5611506,0,0,0,1748698315867
1765,152694,7551818,5620187,0,0,0,1748698315907
1766,152762,7554741,5620487,0,0,0,1748698315947
1767,153018,7557361,5624501,0,0,0,1748698315987
1768,153337,7562237,5627021,0,0,0,1748698316027
1769,153576,7562890,5627841,0,0,0,1748698316067
1770,154293,7566967,5632820,0,0,0,1748698316107
1771,154755,7570246,5634727,0,0,0,1748698316147
1772,154818,7572426,5637204,0,0,0,1748698316187
1773,154336,7575835,5641371,0,0,0,1748698316227
1774,152740,7578755,5644438,0,0,0,1748698316267
1775,151680,7581998,5647162,0,0,0,1748698316307
1776,150862,7583687,5649557,0,0,0,1748698316347
1777,150997,7586932,5655192,0,0,0,1748698316387
1778,151493,7590833,5658160,0,0,0,1748698316427
1779,151447,7592839,5659330,0,0,0,1748698316467
1780,151048,7594267,5660747,0,0,0,1748698316507
1781,150792,7595597,5660946,0,0,0,1748698316547
1782,150793,7595354,5662173,0,0,0,1748698316587
1783,150801,7596318,5661602,0,0,0,1748698316627
1784,150813,7595507,5661382,0,0,0,1748698316667
1785,151118,7595279,5661322,0,0,0,1748698316707
1786,151772,7593281,5663330,0,0,0,1748698316747
1787,154348,7593664,5670019,0,0,0,1748698316787
1788,153984,7597620,5665777,0,0,0,1748698316827
1789,152207,7595824,5666249,0,0,0,1748698316867
1790,151174,7596087,5668758,0,0,0,1748698316907
1791,149228,7598297,5666382,0,0,0,1748698316947
1792,147854,7597174,5665570,0,0,0,1748698316987
1793,147479,7597512,5666531,0,0,0,1748698317027
1794,146872,7598734,5667427,0,0,0,1748698317067
1795,145971,7600134,5667207,0,0,0,1748698317107
1796,145106,7599713,5668334,0,0,0,1748698317147
1797,144620,7600832,5670086,0,0,0,1748698317187
1798,144133,7602697,5671778,0,0,0,1748698317227
1799,144047,7604279,5673582,0,0,0,1748698317267
1800,144139,7606745,5674879,0,0,0,1748698317307
1801,144175,7608407,5675247,0,0,0,1748698317347
1802,144416,7608143,5675205,0,0,0,1748698317387
1803,144765,7608570,5675664,0,0,0,1748698317427
1804,144306,7608307,5676134,0,0,0,1748698317467
1805,142893,7608296,5676626,0,0,0,1748698317507
1806,141557,7608557,5677064,0,0,0,1748698317547
1807,140846,7608716,5677554,0,0,0,1748698317587
1808,140533,7609210,5678281,0,0,0,1748698317627
1809,140745,7609531,5678731,0,0,0,1748698317667
1810,141041,7610240,5679118,0,0,0,1748698317707
1811,140872,7610475,5679427,0,0,0,1748698317747
1812,140765,7611071,5679729,0,0,0,1748698317787
1813,140565,7611003,5679838,0,0,0,1748698317827
1814,140587,7611995,5679969,0,0,0,1748698317867
1815,140630,7611630,5680008,0,0,0,1748698317907
1816,141199,7612117,5680304,0,0,0,1748698317947
1817,141192,7613108,5679935,0,0,0,1748698317987
1818,141405,7612662,5679025,0,0,0,1748698318027
1819,141245,7612450,5678667,0,0,0,1748698318067
1820,140166,7611232,5678125,0,0,0,1748698318107
1821,138647,7610704,5678058,0,0,0,1748698318147
1822,137325,7610669,5678263,0,0,0,1748698318187
1823,136601,7610734,5678253,0,0,0,1748698318227
1824,136662,7610896,5678412,0,0,0,1748698318267
1825,136976,7610967,5678764,0,0,0,1748698318307
1826,137208,7610758,5678621,0,0,0,1748698318347
1827,136932,7610528,5678556,0,0,0,1748698318387
1828,136632,7611343,5678150,0,0,0,1748698318427
1829,136588,7611426,5677952,0,0,0,1748698318467
1830,136904,7612169,5678198,0,0,0,1748698318507
1831,137354,7611984,5677874,0,0,0,1748698318547
1832,137788,7611920,5677750,0,0,0,1748698318587
1833,138561,7610133,5676344,0,0,0,1748698318627
1834,139659,7604807,5672904,0,0,0,1748698318667
1835,140268,7601873,5671223,0,0,0,1748698318707
1836,139739,7600235,5671151,0,0,0,1748698318747
1837,139272,7600098,5671507,0,0,0,1748698318787
1838,139029,7600632,5671681,0,0,0,1748698318827
1839,139368,7600822,5671386,0,0,0,1748698318867
1840,140123,7600957,5671698,0,0,0,1748698318907
1841,141109,7600995,5672542,0,0,0,1748698318947
1842,141521,7601804,5673196,0,0,0,1748698318987
1843,141782,7602271,5673756,0,0,0,1748698319027
1844,142200,7602576,5674030,0,0,0,1748698319067
1845,142572,7603095,5674263,0,0,0,1748698319107
1846,143246,7603291,5674472,0,0,0,1748698319147
1847,144122,7603679,5674752,0,0,0,1748698319187
1848,144889,7604089,5674804,0,0,0,1748698319227
1849,145878,7604091,5674994,0,0,0,1748698319267
1850,146237,7603874,5674894,0,0,0,1748698319307
1851,145309,7603907,5674728,0,0,0,1748698319347
1852,144044,7603737,5674664,0,0,0,1748698319387
1853,143268,7604015,5674472,0,0,0,1748698319427
1854,143033,7604166,5674607,0,0,0,1748698319467
1855,143330,7604160,5674521,0,0,0,1748698319507
1856,143872,7604384,5674463,0,0,0,1748698319547
1857,143883,7603995,5674147,0,0,0,1748698319587
1858,143813,7602315,5672972,0,0,0,1748698319627
1859,143828,7601102,5672097,0,0,0,1748698319667
1860,144136,7600957,5671923,0,0,0,1748698319707
1861,144547,7600955,5671708,0,0,0,1748698319747
1862,145461,7600740,5671605,0,0,0,1748698319787
1863,146146,7601132,5671701,0,0,0,1748698319827
1864,147107,7601378,5671750,0,0,0,1748698319867
1865,147458,7601528,5671685,0,0,0,1748698319907
1866,146505,7601292,5671761,0,0,0,1748698319947
1867,145249,7600983,5671663,0,0,0,1748698319987
1868,144357,7601028,5671613,0,0,0,1748698320027
1869,144142,7601241,5671827,0,0,0,1748698320067
1870,144474,7601555,5671807,0,0,0,1748698320107
1871,144944,7601733,5671703,0,0,0,1748698320147
1872,145066,7601651,5671673,0,0,0,1748698320187
1873,145137,7601650,5671660,0,0,0,1748698320227
1874,145151,7601579,5671604,0,0,0,1748698320267
1875,145260,7601690,5671491,0,0,0,1748698320307
1876,145680,7601772,5671571,0,0,0,1748698320347
1877,146148,7601927,5671587,0,0,0,1748698320387
1878,146840,7602457,5671722,0,0,0,1748698320427
1879,147616,7602286,5671806,0,0,0,1748698320467
1880,147638,7602125,5671780,0,0,0,1748698320507
1881,146618,7601872,5671791,0,0,0,1748698320547
1882,145262,7601757,5671833,0,0,0,1748698320587
1883,144304,7601892,5672141,0,0,0,1748698320627
1884,144008,7602128,5672166,0,0,0,1748698320667
1885,144106,7602442,5672230,0,0,0,1748698320707
1886,144572,7602776,5672499,0,0,0,1748698320747
1887,144551,7603455,5673004,0,0,0,1748698320787
1888,144408,7604198,5673589,0,0,0,1748698320827
1889,144381,7604028,5674029,0,0,0,1748698320867
1890,144872,7605634,5675494,0,0,0,1748698320907
1891,145540,7606332,5676757,0,0,0,1748698320947
1892,145931,7606355,5676603,0,0,0,1748698320987
1893,146467,7606959,5677511,0,0,0,1748698321027
1894,147041,7607495,5678048,0,0,0,1748698321067
1895,146338,7607563,5677824,0,0,0,1748698321107
1896,144608,7608195,5678081,0,0,0,1748698321147
1897,142803,7608149,5678401,0,0,0,1748698321187
1898,141156,7606647,5678632,0,0,0,1748698321227
1899,140544,7609033,5678973,0,0,0,1748698321267
1900,139086,7607814,5678102,0,0,0,1748698321307
1901,137965,7607869,5677005,0,0,0,1748698321368
1902,137680,7608102,5678765,0,0,0,1748698321408
1903,136765,7612807,5679956,0,0,0,1748698321448
1904,135726,7613439,5679654,0,0,0,1748698321488
1905,134662,7611275,5675382,0,0,0,1748698321528
1906,133843,7605976,5670988,0,0,0,1748698321568
1907,133191,7603648,5666818,0,0,0,1748698321608
1908,132658,7599388,5662672,0,0,0,1748698321648
1909,131628,7594601,5657694,0,0,0,1748698321688
1910,129473,7588991,5651088,0,0,0,1748698321728
1911,126994,7582811,5644489,0,0,0,1748698321768
1912,125328,7576684,5637298,0,0,0,1748698321808
1913,124154,7570657,5630006,0,0,0,1748698321848
1914,123572,7563938,5623937,0,0,0,1748698321888
1915,123413,7560836,5620946,0,0,0,1748698321928
1916,122691,7558386,5618290,0,0,0,1748698321968
1917,122158,7557218,5617151,0,0,0,1748698322008
1918,121522,7556929,5616909,0,0,0,1748698322048
1919,121388,7557351,5616733,0,0,0,1748698322088
1920,121245,7554025,5612936,0,0,0,1748698322128
1921,121273,7551065,5609921,0,0,0,1748698322168
1922,121615,7549164,5608061,0,0,0,1748698322208
1923,121715,7547708,5606587,0,0,0,1748698322248
1924,120705,7545712,5604818,0,0,0,1748698322288
1925,118992,7544803,5604097,0,0,0,1748698322328
1926,117468,7542943,5603126,0,0,0,1748698322368
1927,116177,7540984,5601113,0,0,0,1748698322408
1928,115702,7539235,5598823,0,0,0,1748698322448
1929,115640,7533663,5592798,0,0,0,1748698322488
1930,115205,7527280,5587130,0,0,0,1748698322528
1931,114672,7521929,5582246,0,0,0,1748698322568
1932,114111,7517995,5579383,0,0,0,1748698322608
1933,113716,7516582,5578929,0,0,0,1748698322648
1934,113473,7513659,5576143,0,0,0,1748698322688
1935,113269,7509458,5572879,0,0,0,1748698322728
1936,113561,7507253,5570931,0,0,0,1748698322768
1937,113781,7504141,5568012,0,0,0,1748698322808
1938,113939,7501337,5565407,0,0,0,1748698322848
1939,113305,7499860,5563644,0,0,0,1748698322888
1940,111375,7497382,5560617,0,0,0,1748698322928
1941,109533,7494940,5558665,0,0,0,1748698322968
1942,108203,7494095,5556825,0,0,0,1748698323008
1943,107632,7495593,5559424,0,0,0,1748698323048
1944,108948,7511657,5581525,0,0,0,1748698323088
1945,112158,7547563,5627719,0,0,0,1748698323128
1946,115090,7568260,5651579,0,0,0,1748698323168
1947,116432,7575198,5653962,0,0,0,1748698323208
1948,118083,7577445,5659969,0,0,0,1748698323248
1949,119459,7582962,5663496,0,0,0,1748698323288
1950,120690,7584952,5664481,0,0,0,1748698323328
1951,121891,7585316,5665109,0,0,0,1748698323368
1952,122795,7586193,5663680,0,0,0,1748698323408
1953,124026,7585628,5664223,0,0,0,1748698323448
1954,124629,7585982,5664341,0,0,0,1748698323488
1955,123883,7585753,5663860,0,0,0,1748698323528
1956,122689,7585448,5663420,0,0,0,1748698323568
1957,122067,7585378,5663635,0,0,0,1748698323608
1958,122032,7586285,5664093,0,0,0,1748698323648
1959,122520,7587225,5664461,0,0,0,1748698323688
1960,123023,7587554,5664643,0,0,0,1748698323728
1961,123331,7587785,5665049,0,0,0,1748698323768
1962,123494,7588154,5665480,0,0,0,1748698323808
1963,123692,7588446,5665424,0,0,0,1748698323848
1964,123899,7588684,5665503,0,0,0,1748698323888
1965,124293,7588573,5665469,0,0,0,1748698323928
1966,124965,7588547,5665426,0,0,0,1748698323968
1967,125697,7588830,5665277,0,0,0,1748698324008
1968,126565,7588285,5665348,0,0,0,1748698324048
1969,127405,7588336,5665328,0,0,0,1748698324088
1970,127347,7587356,5665209,0,0,0,1748698324128
1971,126285,7586324,5664996,0,0,0,1748698324168
1972,125171,7586161,5664935,0,0,0,1748698324208
1973,124726,7586292,5665185,0,0,0,1748698324248
1974,125057,7586800,5665465,0,0,0,1748698324288
1975,125380,7587189,5665495,0,0,0,1748698324328
1976,125643,7587724,5665357,0,0,0,1748698324368
1977,125544,7587617,5665125,0,0,0,1748698324408
1978,125543,7586995,5664985,0,0,0,1748698324448
1979,125643,7586589,5664887,0,0,0,1748698324488
1980,125952,7586764,5664565,0,0,0,1748698324528
1981,126633,7586642,5664378,0,0,0,1748698324568
1982,127286,7586756,5664267,0,0,0,1748698324608
1983,128132,7586657,5663711,0,0,0,1748698324648
1984,129269,7585640,5662934,0,0,0,1748698324688
1985,130062,7584608,5662384,0,0,0,1748698324728
1986,130400,7584794,5663374,0,0,0,1748698324768
1987,130005,7587607,5663513,0,0,0,1748698324808
1988,129624,7587816,5668697,0,0,0,1748698324848
1989,132992,7584543,5677938,0,0,0,1748698324888
1990,134357,7585172,5674037,0,0,0,1748698324928
1991,134645,7580520,5666681,0,0,0,1748698324968
1992,134289,7569953,5655969,0,0,0,1748698325008
1993,133686,7557450,5643040,0,0,0,1748698325048
1994,133901,7551061,5640276,0,0,0,1748698325088
1995,134681,7548301,5636965,0,0,0,1748698325128
1996,134402,7542254,5626818,0,0,0,1748698325168
1997,133216,7532642,5613260,0,0,0,1748698325208
1998,133883,7529772,5613450,0,0,0,1748698325248
1999,134480,7531225,5617558,0,0,0,1748698325288
2000,136029,7539930,5625834,0,0,0,1748698325328
2001,136461,7542513,5623453,0,0,0,1748698325368
2002,136289,7545651,5627709,0,0,0,1748698325408
2003,135614,7547433,5628409,0,0,0,1748698325448
2004,135025,7547883,5628454,0,0,0,1748698325488
2005,135179,7549876,5630673,0,0,0,1748698325528
2006,135299,7547560,5626377,0,0,0,1748698325568
2007,135178,7544414,5625024,0,0,0,1748698325608
2008,135322,7545057,5624017,0,0,0,1748698325648
2009,134852,7540344,5618510,0,0,0,1748698325688
2010,135513,7537315,5618695,0,0,0,1748698325728
2011,136123,7536225,5618317,0,0,0,1748698325768
2012,136950,7534129,5610704,0,0,0,1748698325808
2013,136186,7526621,5599640,0,0,0,1748698325848
2014,136828,7527574,5601341,0,0,0,1748698325888
2015,136762,7524942,5597232,0,0,0,1748698325928
2016,136288,7516446,5581375,0,0,0,1748698325968
2017,132997,7442593,5508075,0,0,0,1748698326008
2018,131083,7414149,5493035,0,0,0,1748698326048
2019,129284,7408397,5489524,0,0,0,1748698326088
2020,127816,7408852,5492391,0,0,0,1748698326128
2021,128081,7419828,5506053,0,0,0,1748698326168
2022,129445,7423283,5511678,0,0,0,1748698326208
2023,131442,7448319,5539621,0,0,0,1748698326248
2024,132366,7453556,5535341,0,0,0,1748698326288
2025,132022,7457149,5539825,0,0,0,1748698326328
2026,131886,7486984,5577915,0,0,0,1748698326368
2027,132584,7497156,5575099,0,0,0,1748698326408
2028,133609,7498962,5580376,0,0,0,1748698326448
2029,134149,7489355,5563532,0,0,0,1748698326488
2030,133873,7462456,5541198,0,0,0,1748698326528
2031,134034,7451418,5532409,0,0,0,1748698326568
2032,138408,7518629,5619767,0,0,0,1748698326608
2033,136273,7541773,5611256,0,0,0,1748698326648
2034,133626,7527293,5586798,0,0,0,1748698326688
2035,133532,7526377,5589807,0,0,0,1748698326728
2036,134318,7521660,5574831,0,0,0,1748698326768
2037,134154,7503606,5554246,0,0,0,1748698326808
2038,136924,7498464,5555882,0,0,0,1748698326848
2039,141500,7491657,5556976,0,0,0,1748698326888
2040,147325,7481105,5552092,0,0,0,1748698326928
2041,153539,7474143,5552375,0,0,0,1748698326968
2042,159526,7459776,5541548,0,0,0,1748698327008
2043,164494,7440269,5523360,0,0,0,1748698327048
2044,168686,7432967,5516462,0,0,0,1748698327088
2045,171433,7432062,5514898,0,0,0,1748698327128
2046,175795,7435034,5517296,0,0,0,1748698327168
2047,180717,7436636,5518167,0,0,0,1748698327208
2048,185045,7438397,5518948,0,0,0,1748698327248
2049,188232,7438821,5518953,0,0,0,1748698327288
2050,191108,7438006,5518035,0,0,0,1748698327328
2051,192730,7435800,5516520,0,0,0,1748698327368
2052,195113,7435484,5516045,0,0,0,1748698327408
2053,196805,7435039,5517371,0,0,0,1748698327448
2054,201254,7439206,5520664,0,0,0,1748698327488
2055,205300,7451247,5529424,0,0,0,1748698327528
2056,206379,7474099,5546954,0,0,0,1748698327568
2057,205425,7500441,5566044,0,0,0,1748698327608
2058,203589,7521523,5581920,0,0,0,1748698327648
2059,201786,7542586,5602403,0,0,0,1748698327688
2060,200341,7554909,5614189,0,0,0,1748698327728
2061,198828,7561225,5621603,0,0,0,1748698327768
2062,198347,7570166,5634088,0,0,0,1748698327808
2063,197425,7571760,5633675,0,0,0,1748698327848
2064,196208,7563678,5628448,0,0,0,1748698327888
2065,194685,7562086,5624774,0,0,0,1748698327928
2066,192100,7552980,5619566,0,0,0,1748698327968
2067,190300,7554579,5625008,0,0,0,1748698328008
2068,188984,7552471,5622515,0,0,0,1748698328048
2069,187764,7552515,5627144,0,0,0,1748698328088
2070,187206,7553437,5627459,0,0,0,1748698328128
2071,186276,7552684,5623768,0,0,0,1748698328168
2072,185175,7554601,5628387,0,0,0,1748698328208
2073,184510,7555025,5628019,0,0,0,1748698328248
2074,184049,7564167,5632036,0,0,0,1748698328288
2075,183221,7559446,5625202,0,0,0,1748698328328
2076,183615,7559130,5621456,0,0,0,1748698328368
2077,184005,7550860,5615727,0,0,0,1748698328408
2078,184073,7543202,5605404,0,0,0,1748698328448
2079,183510,7541558,5606959,0,0,0,1748698328488
2080,183263,7543933,5612184,0,0,0,1748698328528
2081,180850,7544564,5605356,0,0,0,1748698328568
2082,180094,7549268,5613529,0,0,0,1748698328608
2083,179770,7554525,5621462,0,0,0,1748698328648
2084,179959,7560549,5630028,0,0,0,1748698328688
2085,179621,7560783,5631043,0,0,0,1748698328728
2086,179079,7560888,5632007,0,0,0,1748698328768
2087,178415,7562372,5635066,0,0,0,1748698328808
2088,177740,7563370,5633411,0,0,0,1748698328848
2089,176510,7559606,5629655,0,0,0,1748698328888
2090,175498,7555596,5623657,0,0,0,1748698328928
2091,174680,7548865,5615910,0,0,0,1748698328968
2092,174020,7545795,5612048,0,0,0,1748698329008
2093,173566,7541927,5606196,0,0,0,1748698329048
2094,173216,7538453,5606139,0,0,0,1748698329088
2095,172735,7534741,5605655,0,0,0,1748698329128
2096,171015,7528633,5592775,0,0,0,1748698329168
2097,168892,7514608,5570431,0,0,0,1748698329208
2098,166525,7509829,5570257,0,0,0,1748698329248
2099,166193,7531203,5601145,0,0,0,1748698329288
2100,167779,7544863,5625058,0,0,0,1748698329328
2101,168746,7552457,5630588,0,0,0,1748698329384
2102,168391,7552938,5627383,0,0,0,1748698329424
2103,168329,7552238,5627610,0,0,0,1748698329464
2104,168197,7544487,5616122,0,0,0,1748698329504
2105,167284,7537964,5606045,0,0,0,1748698329544
2106,166746,7532576,5601161,0,0,0,1748698329584
2107,165809,7527248,5597387,0,0,0,1748698329624
2108,165052,7526585,5597921,0,0,0,1748698329664
2109,162620,7523693,5586626,0,0,0,1748698329704
2110,160755,7537026,5598779,0,0,0,1748698329744
2111,159071,7558713,5622990,0,0,0,1748698329784
2112,155890,7551271,5612817,0,0,0,1748698329824
2113,153549,7542442,5607107,0,0,0,1748698329864
2114,152497,7533893,5598126,0,0,0,1748698329904
2115,152143,7520128,5582118,0,0,0,1748698329944
2116,152458,7503737,5564628,0,0,0,1748698329984
2117,153035,7485555,5543677,0,0,0,1748698330024
2118,152940,7483009,5539616,0,0,0,1748698330064
2119,152947,7468349,5522933,0,0,0,1748698330104
2120,153355,7454976,5512495,0,0,0,1748698330144
2121,153954,7433012,5490869,0,0,0,1748698330184
2122,154285,7421103,5488114,0,0,0,1748698330224
2123,154404,7432565,5498086,0,0,0,1748698330264
2124,154097,7425815,5485261,0,0,0,1748698330304
2125,152891,7427586,5496926,0,0,0,1748698330344
2126,151233,7428442,5504479,0,0,0,1748698330384
2127,149870,7429191,5506604,0,0,0,1748698330424
2128,148973,7438611,5520187,0,0,0,1748698330464
2129,148760,7433256,5509494,0,0,0,1748698330504
2130,148590,7432777,5511338,0,0,0,1748698330544
2131,148051,7433516,5513149,0,0,0,1748698330584
2132,147190,7434775,5519393,0,0,0,1748698330624
2133,146694,7436857,5521054,0,0,0,1748698330664
2134,146559,7437961,5518778,0,0,0,1748698330704
2135,146444,7436582,5518370,0,0,0,1748698330744
2136,146415,7438489,5523759,0,0,0,1748698330784
2137,146764,7438381,5522159,0,0,0,1748698330824
2138,147428,7445377,5532252,0,0,0,1748698330864
2139,147216,7444917,5528805,0,0,0,1748698330904
2140,146041,7454310,5539696,0,0,0,1748698330944
2141,144419,7464326,5550247,0,0,0,1748698330984
2142,143398,7476408,5564055,0,0,0,1748698331024
2143,143454,7491125,5579402,0,0,0,1748698331064
2144,144099,7501871,5592247,0,0,0,1748698331104
2145,144946,7508114,5600704,0,0,0,1748698331144
2146,144677,7505349,5592230,0,0,0,1748698331184
2147,143533,7498505,5587590,0,0,0,1748698331224
2148,142621,7492100,5577640,0,0,0,1748698331264
2149,141744,7485662,5572199,0,0,0,1748698331304
2150,141957,7486508,5575361,0,0,0,1748698331344
2151,142350,7484405,5572477,0,0,0,1748698331384
2152,143211,7489363,5577384,0,0,0,1748698331424
2153,144607,7488548,5574582,0,0,0,1748698331464
2154,144282,7482440,5560746,0,0,0,1748698331504
2155,143024,7471711,5540131,0,0,0,1748698331544
2156,140405,7452165,5520649,0,0,0,1748698331584
2157,140006,7456541,5531045,0,0,0,1748698331624
2158,140486,7466047,5546171,0,0,0,1748698331664
2159,140859,7471755,5548770,0,0,0,1748698331704
2160,140907,7480588,5557263,0,0,0,1748698331744
2161,141254,7490789,5566241,0,0,0,1748698331784
2162,141303,7497393,5573681,0,0,0,1748698331824
2163,141439,7505152,5582032,0,0,0,1748698331864
2164,140928,7505076,5577880,0,0,0,1748698331904
2165,140664,7507619,5582312,0,0,0,1748698331944
2166,140960,7510660,5586009,0,0,0,1748698331984
2167,141284,7513100,5587535,0,0,0,1748698332024
2168,141704,7513861,5588449,0,0,0,1748698332064
2169,141074,7514235,5589535,0,0,0,1748698332104
2170,139662,7510550,5584495,0,0,0,1748698332144
2171,137999,7508993,5584904,0,0,0,1748698332184
2172,137616,7512877,5592244,0,0,0,1748698332224
2173,136674,7508446,5580475,0,0,0,1748698332264
2174,136550,7507961,5582355,0,0,0,1748698332304
2175,136352,7505901,5580165,0,0,0,1748698332344
2176,135784,7502792,5574394,0,0,0,1748698332384
2177,134703,7499984,5573300,0,0,0,1748698332424
2178,133883,7497716,5572926,0,0,0,1748698332464
2179,133367,7496274,5576134,0,0,0,1748698332504
2180,134282,7499496,5588180,0,0,0,1748698332544
2181,137002,7506747,5601486,0,0,0,1748698332584
2182,137820,7503939,5593741,0,0,0,1748698332624
2183,138199,7503670,5592891,0,0,0,1748698332664
2184,138345,7504650,5594516,0,0,0,1748698332704
2185,137915,7505978,5592661,0,0,0,1748698332744
2186,135853,7499452,5580652,0,0,0,1748698332784
2187,133972,7499408,5579712,0,0,0,1748698332824
2188,133750,7503010,5583252,0,0,0,1748698332864
2189,135691,7513791,5600383,0,0,0,1748698332904
2190,138684,7515574,5609307,0,0,0,1748698332944
2191,138629,7510864,5594125,0,0,0,1748698332984
2192,138266,7515088,5598484,0,0,0,1748698333024
2193,138587,7521750,5607631,0,0,0,1748698333064
2194,139459,7529184,5613835,0,0,0,1748698333104
2195,139241,7528869,5611850,0,0,0,1748698333144
2196,139942,7528758,5613294,0,0,0,1748698333184
2197,141053,7525395,5603775,0,0,0,1748698333224
2198,141480,7522103,5594221,0,0,0,1748698333264
2199,141982,7523921,5597059,0,0,0,1748698333304
2200,142421,7528369,5600721,0,0,0,1748698333344
2201,141714,7527369,5602609,0,0,0,1748698333384
2202,141030,7527320,5605307,0,0,0,1748698333424
2203,140364,7529474,5604058,0,0,0,1748698333464
2204,139893,7528607,5599473,0,0,0,1748698333504
2205,139626,7528818,5601509,0,0,0,1748698333544
2206,139046,7527240,5600177,0,0,0,1748698333584
2207,139031,7528495,5602545,0,0,0,1748698333624
2208,138837,7526240,5598563,0,0,0,1748698333664
2209,138802,7529727,5599404,0,0,0,1748698333704
2210,138907,7530342,5600191,0,0,0,1748698333744
2211,139763,7535816,5608651,0,0,0,1748698333784
2212,140340,7537217,5612273,0,0,0,1748698333824
2213,141651,7540904,5619595,0,0,0,1748698333864
2214,142544,7539375,5616675,0,0,0,1748698333904
2215,142149,7536578,5617717,0,0,0,1748698333944
2216,142652,7531620,5619957,0,0,0,1748698333984
2217,142835,7524741,5611029,0,0,0,1748698334024
2218,143606,7526790,5615706,0,0,0,1748698334064
2219,145242,7526608,5614165,0,0,0,1748698334104
2220,145688,7524528,5606908,0,0,0,1748698334144
2221,145939,7528094,5610365,0,0,0,1748698334184
2222,145485,7528931,5608312,0,0,0,1748698334224
2223,144974,7533451,5609654,0,0,0,1748698334264
2224,144278,7536486,5609273,0,0,0,1748698334304
2225,144155,7538436,5616631,0,0,0,1748698334344
2226,144201,7541957,5617013,0,0,0,1748698334384
2227,143845,7545211,5614776,0,0,0,1748698334424
2228,143877,7546329,5616279,0,0,0,1748698334464
2229,143277,7548427,5614346,0,0,0,1748698334504
2230,140934,7546355,5613404,0,0,0,1748698334544
2231,138357,7543881,5615662,0,0,0,1748698334584
2232,136590,7543744,5613843,0,0,0,1748698334624
2233,135347,7539554,5612819,0,0,0,1748698334664
2234,135485,7537769,5611733,0,0,0,1748698334704
2235,136590,7539066,5614549,0,0,0,1748698334744
2236,136846,7524805,5590722,0,0,0,1748698334784
2237,136736,7523155,5589822,0,0,0,1748698334824
2238,137167,7529996,5599240,0,0,0,1748698334864
2239,136790,7526758,5589618,0,0,0,1748698334904
2240,136696,7531934,5596650,0,0,0,1748698334944
2241,136156,7529151,5593388,0,0,0,1748698334984
2242,136053,7530283,5596824,0,0,0,1748698335024
2243,136912,7535155,5608898,0,0,0,1748698335064
2244,137610,7535068,5601735,0,0,0,1748698335104
2245,135817,7536183,5598144,0,0,0,1748698335144
2246,132621,7531836,5593569,0,0,0,1748698335184
2247,130324,7531284,5597037,0,0,0,1748698335224
2248,129257,7531263,5600610,0,0,0,1748698335264
2249,128208,7530228,5594663,0,0,0,1748698335304
2250,127837,7529797,5594773,0,0,0,1748698335344
2251,126858,7527046,5585791,0,0,0,1748698335384
2252,125884,7526628,5585647,0,0,0,1748698335424
2253,124761,7527083,5589311,0,0,0,1748698335464
2254,123752,7526980,5587212,0,0,0,1748698335504
2255,122797,7527875,5589495,0,0,0,1748698335544
2256,121547,7526288,5588906,0,0,0,1748698335584
2257,120132,7523076,5584148,0,0,0,1748698335624
2258,119249,7524862,5588705,0,0,0,1748698335664
2259,118284,7524448,5586758,0,0,0,1748698335704
2260,117304,7524765,5588015,0,0,0,1748698335744
2261,115885,7524379,5591401,0,0,0,1748698335784
2262,113883,7526279,5591530,0,0,0,1748698335824
2263,111682,7527445,5591526,0,0,0,1748698335864
2264,111612,7528405,5595104,0,0,0,1748698335904
2265,111679,7528744,5598065,0,0,0,1748698335944
2266,112373,7530430,5601964,0,0,0,1748698335984
2267,113631,7534256,5606861,0,0,0,1748698336024
2268,113787,7535673,5608903,0,0,0,1748698336064
2269,113864,7536532,5610366,0,0,0,1748698336104
2270,114596,7540021,5610202,0,0,0,1748698336144
2271,115261,7541454,5611757,0,0,0,1748698336184
2272,115603,7542909,5612736,0,0,0,1748698336224
2273,115890,7544081,5611038,0,0,0,1748698336264
2274,116568,7544130,5609503,0,0,0,1748698336304
2275,118899,7544660,5608178,0,0,0,1748698336344
2276,119905,7547802,5607988,0,0,0,1748698336384
2277,119838,7548311,5607163,0,0,0,1748698336424
2278,119467,7548856,5607142,0,0,0,1748698336464
2279,119704,7550291,5606933,0,0,0,1748698336504
2280,119504,7551712,5607247,0,0,0,1748698336544
2281,119656,7554419,5612714,0,0,0,1748698336584
2282,119750,7551198,5613953,0,0,0,1748698336624
2283,119559,7547141,5607871,0,0,0,1748698336664
2284,119600,7549010,5607895,0,0,0,1748698336704
2285,119564,7548004,5607927,0,0,0,1748698336744
2286,120479,7544875,5605945,0,0,0,1748698336784
2287,121111,7542802,5597463,0,0,0,1748698336824
2288,121034,7532132,5584396,0,0,0,1748698336864
2289,120803,7529254,5578507,0,0,0,1748698336904
2290,121265,7531111,5584276,0,0,0,1748698336944
2291,123029,7534489,5594962,0,0,0,1748698336984
2292,123378,7543278,5604798,0,0,0,1748698337024
2293,123771,7550792,5615404,0,0,0,1748698337064
2294,123879,7552226,5616842,0,0,0,1748698337104
2295,124183,7552851,5619846,0,0,0,1748698337144
2296,125313,7553945,5622821,0,0,0,1748698337184
2297,125534,7553935,5618889,0,0,0,1748698337224
2298,125615,7554305,5622238,0,0,0,1748698337264
2299,125795,7554406,5620912,0,0,0,1748698337304
2300,126078,7555575,5619936,0,0,0,1748698337344
2301,126424,7557601,5624271,0,0,0,1748698337401
2302,126833,7559249,5629646,0,0,0,1748698337441
2303,127933,7560207,5631630,0,0,0,1748698337481
2304,128112,7562616,5626752,0,0,0,1748698337521
2305,128049,7561459,5626302,0,0,0,1748698337561
2306,128255,7559368,5623523,0,0,0,1748698337601
2307,126017,7555894,5622199,0,0,0,1748698337641
2308,122612,7552030,5611813,0,0,0,1748698337681
2309,120937,7549074,5616483,0,0,0,1748698337721
2310,119840,7553450,5626684,0,0,0,1748698337761
2311,118972,7558810,5631028,0,0,0,1748698337801
2312,117666,7561059,5631783,0,0,0,1748698337841
2313,117139,7570186,5649422,0,0,0,1748698337881
2314,117714,7568451,5652773,0,0,0,1748698337921
2315,118959,7571426,5650815,0,0,0,1748698337961
2316,118204,7569028,5644245,0,0,0,1748698338001
2317,118000,7558668,5636292,0,0,0,1748698338041
2318,118616,7563806,5639228,0,0,0,1748698338081
2319,118556,7572011,5646845,0,0,0,1748698338121
2320,120650,7573421,5654218,0,0,0,1748698338161
2321,121936,7571109,5656640,0,0,0,1748698338201
2322,121928,7569292,5659143,0,0,0,1748698338241
2323,120632,7569399,5659794,0,0,0,1748698338281
2324,119797,7565768,5659528,0,0,0,1748698338321
2325,118980,7562439,5657287,0,0,0,1748698338361
2326,118714,7560663,5654243,0,0,0,1748698338401
2327,118592,7563607,5655931,0,0,0,1748698338441
2328,118945,7559440,5656313,0,0,0,1748698338481
2329,119028,7559574,5652533,0,0,0,1748698338521
2330,117775,7558420,5648529,0,0,0,1748698338561
2331,117692,7555455,5642247,0,0,0,1748698338601
2332,118113,7556265,5642417,0,0,0,1748698338641
2333,119192,7557761,5643575,0,0,0,1748698338681
2334,120093,7558060,5642835,0,0,0,1748698338721
2335,120641,7557648,5639373,0,0,0,1748698338761
2336,120643,7556848,5637737,0,0,0,1748698338801
2337,120164,7555263,5636796,0,0,0,1748698338841
2338,118468,7554033,5638330,0,0,0,1748698338881
2339,118144,7549592,5630821,0,0,0,1748698338921
2340,120299,7548509,5631050,0,0,0,1748698338961
2341,120165,7539615,5613884,0,0,0,1748698339001
2342,119004,7521939,5585082,0,0,0,1748698339041
2343,121001,7501484,5559611,0,0,0,1748698339081
2344,127647,7496326,5555465,0,0,0,1748698339121
2345,134488,7477576,5541404,0,0,0,1748698339161
2346,139150,7466778,5531772,0,0,0,1748698339201
2347,143832,7463702,5529305,0,0,0,1748698339241
2348,145404,7461224,5526991,0,0,0,1748698339281
2349,148036,7456529,5521222,0,0,0,1748698339321
2350,148548,7456900,5518615,0,0,0,1748698339361
2351,146592,7453719,5513442,0,0,0,1748698339401
2352,146103,7452017,5510852,0,0,0,1748698339441
2353,148074,7453768,5513094,0,0,0,1748698339481
2354,149915,7447840,5509211,0,0,0,1748698339521
2355,153272,7437284,5503240,0,0,0,1748698339561
2356,158056,7431256,5501367,0,0,0,1748698339601
2357,163635,7430277,5502406,0,0,0,1748698339641
2358,169838,7427058,5501611,0,0,0,1748698339681
2359,174912,7425780,5501050,0,0,0,1748698339721
2360,179092,7427339,5502454,0,0,0,1748698339761
2361,183075,7429433,5503579,0,0,0,1748698339801
2362,188289,7431588,5506117,0,0,0,1748698339841
2363,191458,7429580,5505613,0,0,0,1748698339881
2364,195146,7429717,5506088,0,0,0,1748698339921
2365,200476,7432149,5508628,0,0,0,1748698339961
2366,204703,7434448,5511019,0,0,0,1748698340001
2367,210138,7437229,5514869,0,0,0,1748698340041
2368,214804,7451517,5527997,0,0,0,1748698340081
2369,217384,7490351,5561084,0,0,0,1748698340121
2370,214637,7521324,5586249,0,0,0,1748698340161
2371,210503,7542812,5599233,0,0,0,1748698340201
2372,207209,7557501,5617759,0,0,0,1748698340241
2373,204618,7571170,5637481,0,0,0,1748698340281
2374,203292,7578487,5645895,0,0,0,1748698340321
2375,202157,7581789,5653350,0,0,0,1748698340361
2376,201275,7585550,5655746,0,0,0,1748698340401
2377,200113,7588639,5655019,0,0,0,1748698340441
2378,198553,7590439,5652963,0,0,0,1748698340481
2379,196692,7587982,5653298,0,0,0,1748698340521
2380,194811,7585808,5646536,0,0,0,1748698340561
2381,192186,7588501,5644632,0,0,0,1748698340601
2382,189770,7584308,5646279,0,0,0,1748698340641
2383,187174,7588023,5652341,0,0,0,1748698340681
2384,182691,7588252,5640441,0,0,0,1748698340721
2385,177727,7584336,5641428,0,0,0,1748698340761
2386,173447,7585346,5638165,0,0,0,1748698340801
2387,169875,7583820,5644502,0,0,0,1748698340841
2388,166675,7583215,5641662,0,0,0,1748698340881
2389,163001,7574167,5628603,0,0,0,1748698340921
2390,159842,7563689,5625275,0,0,0,1748698340961
2391,157171,7561479,5625022,0,0,0,1748698341001
2392,154302,7561737,5626007,0,0,0,1748698341041
2393,150749,7553071,5612641,0,0,0,1748698341081
2394,147025,7529610,5586099,0,0,0,1748698341121
2395,143670,7497166,5554849,0,0,0,1748698341161
2396,141387,7464765,5522648,0,0,0,1748698341201
2397,139491,7440002,5504081,0,0,0,1748698341241
2398,137608,7426291,5491198,0,0,0,1748698341281
2399,135097,7413772,5482602,0,0,0,1748698341321
2400,132001,7410305,5481379,0,0,0,1748698341361
2401,129123,7403467,5475422,0,0,0,1748698341401
2402,126901,7400377,5472546,0,0,0,1748698341441
2403,125646,7395650,5467751,0,0,0,1748698341481
2404,124302,7395303,5467198,0,0,0,1748698341521
2405,123038,7392500,5464372,0,0,0,1748698341561
2406,121661,7390455,5463520,0,0,0,1748698341601
2407,119766,7388592,5461414,0,0,0,1748698341641
2408,118414,7387337,5461453,0,0,0,1748698341681
2409,117166,7384035,5456923,0,0,0,1748698341721
2410,116164,7381787,5455969,0,0,0,1748698341761
2411,115475,7377583,5452705,0,0,0,1748698341801
2412,114856,7375477,5452332,0,0,0,1748698341841
2413,113995,7372358,5448980,0,0,0,1748698341881
2414,112006,7369004,5444999,0,0,0,1748698341921
2415,109294,7365359,5441038,0,0,0,1748698341961
2416,106400,7363065,5439842,0,0,0,1748698342001
2417,104041,7361291,5437939,0,0,0,1748698342041
2418,102690,7358893,5435953,0,0,0,1748698342081
2419,101674,7358544,5434242,0,0,0,1748698342121
2420,100409,7357491,5430277,0,0,0,1748698342161
2421,99055,7355968,5427779,0,0,0,1748698342201
2422,97819,7355118,5427860,0,0,0,1748698342241
2423,96387,7354291,5424643,0,0,0,1748698342281
2424,95270,7352485,5424278,0,0,0,1748698342321
2425,94928,7351464,5424194,0,0,0,1748698342361
2426,94587,7350298,5420962,0,0,0,1748698342401
2427,94293,7345538,5417410,0,0,0,1748698342441
2428,94048,7349419,5419619,0,0,0,1748698342481
2429,93522,7347269,5416272,0,0,0,1748698342521
2430,91280,7343793,5412367,0,0,0,1748698342561
2431,88719,7344099,5412621,0,0,0,1748698342601
2432,86384,7343840,5412598,0,0,0,1748698342641
2433,85728,7343522,5418449,0,0,0,1748698342681
2434,85968,7341638,5413644,0,0,0,1748698342721
2435,86588,7356794,5434394,0,0,0,1748698342761
2436,89178,7379115,5462163,0,0,0,1748698342801
2437,89337,7378899,5461867,0,0,0,1748698342841
2438,91628,7413369,5504966,0,0,0,1748698342881
2439,94076,7431118,5519152,0,0,0,1748698342921
2440,93464,7426460,5514350,0,0,0,1748698342961
2441,93360,7435414,5516138,0,0,0,1748698343001
2442,93380,7427830,5508017,0,0,0,1748698343041
2443,94016,7435903,5516689,0,0,0,1748698343081
2444,94495,7440678,5519385,0,0,0,1748698343121
2445,93460,7440085,5515573,0,0,0,1748698343161
2446,91832,7435701,5511820,0,0,0,1748698343201
2447,89815,7434780,5507809,0,0,0,1748698343241
2448,88225,7419777,5489661,0,0,0,1748698343281
2449,86739,7402216,5472281,0,0,0,1748698343321
2450,85941,7391774,5458503,0,0,0,1748698343361
2451,85022,7379680,5445180,0,0,0,1748698343401
2452,84131,7374583,5439487,0,0,0,1748698343441
2453,83583,7372471,5436509,0,0,0,1748698343481
2454,83408,7376613,5439340,0,0,0,1748698343521
2455,83824,7386501,5444142,0,0,0,1748698343561
2456,84752,7388920,5446708,0,0,0,1748698343601
2457,85756,7391850,5447923,0,0,0,1748698343641
2458,86916,7388683,5444280,0,0,0,1748698343681
2459,88030,7387083,5443702,0,0,0,1748698343721
2460,88578,7390306,5451377,0,0,0,1748698343761
2461,88103,7391742,5453099,0,0,0,1748698343801
2462,87249,7397654,5476805,0,0,0,1748698343841
2463,87101,7400084,5471064,0,0,0,1748698343881
2464,86717,7392211,5466509,0,0,0,1748698343921
2465,89145,7424442,5510845,0,0,0,1748698343961
2466,90281,7426136,5505748,0,0,0,1748698344001
2467,92019,7445425,5528995,0,0,0,1748698344041
2468,94188,7458524,5540774,0,0,0,1748698344081
2469,95402,7466734,5549282,0,0,0,1748698344121
2470,97662,7486715,5570061,0,0,0,1748698344161
2471,98381,7474826,5551808,0,0,0,1748698344201
2472,99783,7481037,5559796,0,0,0,1748698344241
2473,100786,7468815,5539434,0,0,0,1748698344281
2474,100581,7450556,5520908,0,0,0,1748698344321
2475,100469,7445917,5512564,0,0,0,1748698344361
2476,99783,7439515,5507663,0,0,0,1748698344401
2477,98401,7431607,5496831,0,0,0,1748698344441
2478,96004,7426716,5498594,0,0,0,1748698344481
2479,95161,7424068,5493156,0,0,0,1748698344521
2480,94230,7418755,5486812,0,0,0,1748698344561
2481,94134,7418057,5488791,0,0,0,1748698344601
2482,93808,7414927,5482191,0,0,0,1748698344641
2483,93186,7411311,5479497,0,0,0,1748698344681
2484,93506,7414599,5485229,0,0,0,1748698344721
2485,93823,7415889,5487903,0,0,0,1748698344761
2486,94289,7418912,5490333,0,0,0,1748698344801
2487,95182,7419428,5492960,0,0,0,1748698344841
2488,96803,7425440,5499806,0,0,0,1748698344881
2489,98062,7425225,5499988,0,0,0,1748698344921
2490,100225,7432996,5507743,0,0,0,1748698344961
2491,100808,7430656,5504513,0,0,0,1748698345001
2492,101283,7435468,5510535,0,0,0,1748698345041
2493,101538,7440325,5515648,0,0,0,1748698345081
2494,101814,7443855,5517332,0,0,0,1748698345121
2495,102558,7444220,5517361,0,0,0,1748698345161
2496,104490,7451134,5526506,0,0,0,1748698345201
2497,106041,7452142,5525265,0,0,0,1748698345241
2498,106750,7451707,5525895,0,0,0,1748698345281
2499,107344,7451753,5525342,0,0,0,1748698345321
2500,108372,7457879,5533359,0,0,0,1748698345361
2501,110183,7466693,5541732,0,0,0,1748698345421
2502,110499,7461490,5534157,0,0,0,1748698345461
2503,111134,7459790,5533391,0,0,0,1748698345501
2504,112783,7462918,5535546,0,0,0,1748698345541
2505,114379,7462085,5534909,0,0,0,1748698345581
2506,116019,7463880,5535433,0,0,0,1748698345621
2507,117178,7468335,5540861,0,0,0,1748698345661
2508,118433,7476712,5551261,0,0,0,1748698345701
2509,119284,7480542,5555201,0,0,0,1748698345741
2510,119939,7482204,5556609,0,0,0,1748698345781
2511,120405,7476732,5549568,0,0,0,1748698345821
2512,120905,7473357,5546797,0,0,0,1748698345861
2513,121836,7473805,5548384,0,0,0,1748698345901
2514,121967,7468169,5543924,0,0,0,1748698345941
2515,122292,7466578,5542310,0,0,0,1748698345981
2516,122820,7463897,5540149,0,0,0,1748698346021
2517,124053,7466097,5543433,0,0,0,1748698346061
2518,125140,7465529,5542200,0,0,0,1748698346101
2519,126145,7464367,5540957,0,0,0,1748698346141
2520,127193,7463750,5540539,0,0,0,1748698346181
2521,126507,7461141,5535737,0,0,0,1748698346221
2522,125218,7457135,5531934,0,0,0,1748698346261
2523,124613,7458072,5535192,0,0,0,1748698346301
2524,123717,7455913,5531971,0,0,0,1748698346341
2525,123472,7454101,5530272,0,0,0,1748698346381
2526,123797,7455043,5532173,0,0,0,1748698346421
2527,123702,7454097,5529796,0,0,0,1748698346461
2528,124003,7453716,5532358,0,0,0,1748698346501
2529,124331,7452409,5530494,0,0,0,1748698346541
2530,124227,7450842,5528032,0,0,0,1748698346581
